-0.000517519704822451,-0.015475189197817091,-0.014957669492994643,0.007464253754806471,0.007628551291168956,-0.015811416430306115,0.043993374675721626,0.07081064554853063,0.030374663985866936,-0.00040529562460589073,-0.005109794086899172,-0.011088566165572933
-0.0043399907111383515,-0.02256964011446822,-0.018229649403329884,0.013706648040788926,0.007743119695823473,-0.02004121819248775,0.05562925981584581,0.0987420163822736,0.04089101287890666,-0.0026236038859710916,-0.00904661169723822,-0.020296753785319647
0.0015415384039709152,-0.018056971091341703,-0.019598509495312628,0.008430548455877453,0.010160629132790016,-0.01839982680780007,0.03896237557476813,0.08085822172655183,0.02899689369000066,-0.010811992284272352,-0.01704155500500443,-0.02384533172911947
0.010728779915725177,-0.018764682883572758,-0.02949346279929795,0.0036911419555127134,0.01971529224644906,-0.024270288079843723,0.03500717946315755,0.07887832814193461,0.021127910516504533,-0.018216209680392347,-0.022093041576296556,-0.029555604316098605
0.008129854484250371,-0.008342309061191632,-0.01647216354544202,6.807671036741389e-06,0.012444613299265939,-0.012948316866801469,0.03329660301459985,0.07542994718527908,0.016783002173192688,-0.018092170780676507,-0.016986415524294814,-0.027305524711757723
0.00884086282755276,0.004090036168795702,-0.004750826658757064,-0.00697735058593068,0.007328026374801715,-0.001017542348762287,0.03164019769205674,0.07797573257252097,0.018119806785072152,-0.018529962509076965,-0.017002596846998546,-0.027052809185050663
0.008489579734495174,0.0019838144719279316,-0.006505765262567252,-0.005399217837112786,0.007615910763746966,-0.002834730173246202,0.028121789013109976,0.07949311956295163,0.017232945259756573,-0.01629579408690409,-0.016745599300232516,-0.02496940082405891
0.006640856334697658,-0.003013199910801961,-0.00965405624549963,-0.001980466727971626,0.007825340842293353,-0.006399568765761551,0.028830234828818076,0.08382084636663256,0.01825237316347744,-0.015734593993473118,-0.016986813959178646,-0.024382166076805472
-0.0011743882368702165,-0.0010968552357554578,7.753300111474773e-05,0.0008112245048067486,-0.0007293458476290861,-0.0008644214888083344,0.030744223591362578,0.0865079272542049,0.022361078087672098,-0.013731752286582936,-0.016429046245067882,-0.02228370186749235
-0.006454995723233389,0.004409307855573238,0.01086430357880662,0.0006258666301874652,-0.008381057842021906,0.007824680592331917,0.03621403937976514,0.09207371973080346,0.02960544839818896,-0.006065390413866625,-0.01189917374886114,-0.016463340206191314
-0.011609473113329492,0.0017530671448983458,0.01336254025822783,0.005481321474264968,-0.012285914850005852,0.007153186849965632,0.03555877535436528,0.09632010399936006,0.03550753062118235,-0.001020892165747049,-0.006735827781860666,-0.01412966570079545
-0.008618500388658908,-0.0006132279788625601,0.008005272409796335,0.004312202431545142,-0.008117864008389203,0.003908552729348133,0.03353325811950191,0.09741647827441316,0.03964319644726555,-0.00021159150141734996,-0.002141235527080207,-0.014490190015975532
-0.0020272935808339676,0.00420572397378937,0.0062330175546233295,-0.001191707456297343,-0.0038599994661706184,0.005426523491196168,0.03413772420608636,0.10193332520997458,0.04286961008224065,0.004678169412666188,0.00016327478106957738,-0.012179113245526414
-0.006276688418565054,0.002076727182490153,0.008353415601055196,0.002391413554329928,-0.0072258361633140734,0.0048155686048121805,0.03872040448750388,0.11440505203342906,0.05488457000395721,0.014596823275095297,0.008642360201798049,-0.004403637407667143
-0.006115988219398496,-0.0015561058700268096,0.004559882349371673,0.003389091449773036,-0.0047165894642046775,0.0010570089545081744,0.043450355501332,0.12766622376885634,0.06521302091552914,0.024096445668734076,0.015541025835958436,0.005766450145921868
-0.0016530007394169298,0.004226709088564506,0.005879709827981426,-0.0010516503607518818,-0.0031765793923256313,0.00531308723820334,0.04349761039359349,0.1344830135786067,0.0703506706377356,0.02958572577183565,0.016281746279650202,0.008293640259730152
0.003957826270792862,0.012322532814452888,0.008364706543660016,-0.007913796070983713,-0.0020773014736624896,0.009854479593702607,0.03863863624242956,0.13414463726699805,0.06829472914506551,0.027197703319696842,0.013233294512096896,0.0031770481179939853
0.013898200012354192,0.0151076695911839,0.0012094695788296948,-0.015124348413892423,0.006563477620410348,0.007873632452809412,0.035832903715022915,0.13182456497847103,0.06474673522217798,0.024097142801096802,0.011169712078949415,-0.0011917014430735864
0.028576349300416453,0.016794180836305194,-0.011782168464111262,-0.022727923349889375,0.019820789444346572,0.0023129573153973892,0.03851612107831755,0.1346900402906317,0.06857254787661618,0.026880870177636036,0.013918991609271384,-0.001647760619677925
0.03599001810125393,0.011672818187602916,-0.024317199913651028,-0.024359599545030843,0.0302177318669148,-0.00647931986239348,0.044085218011974334,0.145550904948145,0.07740831719888666,0.03277894131208704,0.020487494752472885,0.005686368296157467
0.02901163000493858,0.009085491011610405,-0.019926138993328193,-0.019843906400538625,0.025159535782197064,-0.005935439815442547,0.04647292621556647,0.15693715318378398,0.08395182595711394,0.039861107181315046,0.030914039925205007,0.015615333573753193
0.01844581723579169,0.009944088443942982,-0.008501728791848715,-0.014341842705991977,0.013748289829307815,-7.638202137493811e-06,0.046326919807162074,0.16273850094580755,0.09068650130198798,0.04469962643657109,0.03594946251960716,0.02102467852004906
0.010714642576221805,0.01382986099702475,0.0031152184208029328,-0.012008410662623564,0.0040283071180388375,0.008594045018911955,0.045837273056202,0.16491349100943414,0.09596206171028217,0.04945273661362039,0.040905713169224825,0.025960412122301695
0.008320954027273769,0.014922198726686545,0.006601244699412765,-0.011944493753121576,0.0014224679119518178,0.009962450315214727,0.04344024734966397,0.1671731155917083,0.0984432758534698,0.04978076807068984,0.040888337322246254,0.031232330646995668
0.01044174002468209,0.019402132343163327,0.008960392318481229,-0.014494521000003304,0.0004049802121990063,0.014636959809070748,0.04417251767424472,0.1721957962140983,0.09826476768011913,0.04978999048638643,0.043093419595524964,0.03388793679544933
0.0110754883120458,0.02221856480849718,0.011143076496451371,-0.017359203111495292,-9.150861981305389e-05,0.01699988965571203,0.04164223502625268,0.17283301014585412,0.09805711042702497,0.050025466338668015,0.043575908161679985,0.03328761165770334
0.003899892160107938,0.014553373819597265,0.010653481659489318,-0.009899718228285989,-0.0031731418455469124,0.012155542261294838,0.04181746862573646,0.17749450205405132,0.10058157671655765,0.05535528415862501,0.04579351311787355,0.03585226523187316
0.0025359056767810797,0.012103098224744223,0.00956719254796313,-0.006942683434715887,-0.0038107825174034144,0.011013227615766664,0.04392227836156189,0.18256839134356692,0.10579384154052746,0.06261309785108096,0.051395743318993006,0.04134067901808406
0.01138904180867901,0.017009501867437753,0.0056204600587587295,-0.014431344436639633,0.0026651257985524455,0.011827127523338777,0.0441856069848698,0.18758158160289656,0.11267161749837418,0.06725194867016826,0.05604336991671975,0.04589340318668154
0.020637861122077047,0.029561631058275317,0.008923769936198261,-0.025170786315918858,0.005766550817806431,0.019987334476818667,0.04679074651284201,0.19272053002650608,0.11863830668306322,0.07266274980266453,0.06148446946271156,0.053322090680090896
0.034064921776173825,0.040320421282580586,0.006255499506406759,-0.03786183154809766,0.013883115675949896,0.023168099593228065,0.0438811290013178,0.19722900205481977,0.12336078202661163,0.07688479713392765,0.0656625999991383,0.05671813901170334
0.04431631514837413,0.04445599686507373,0.0001396817166995941,-0.04465480547542539,0.022397425292785444,0.02248053529337528,0.03870705763371662,0.19813725140890068,0.12855216902088903,0.07976965447410858,0.06861079310502678,0.05590654086929232
0.049079450521960985,0.0572439610060195,0.0081645104840585,-0.052749264797844045,0.020506503037249442,0.03224817932679967,0.03402815955350192,0.20265851210002944,0.13354658619866164,0.0856455597972809,0.07435934582367969,0.058517610100502236
0.05873701527564772,0.07226972248655408,0.013532707210906353,-0.0654201034694327,0.022674709868664454,0.04260324090931867,0.03541141363436892,0.20777774177483338,0.1385444491124816,0.09456317314920211,0.08384068820688129,0.06601624520384612
0.06361260452905503,0.08751580231029091,0.023903197781235862,-0.07459825503663907,0.01948283380614957,0.05551450936959473,0.03662038472244238,0.2128260723796426,0.14371866105847203,0.100426061906735,0.09378440218067714,0.07678587074906827
0.06410201859258272,0.09287137634019918,0.02876935774761649,-0.0783993207344466,0.01729039776260829,0.06005378538525711,0.035757103655667546,0.21782381167089118,0.14853680926865293,0.10496865541314493,0.09893851034155719,0.08409026485036143
0.06399023701135603,0.08526387182568257,0.021273634814326512,-0.07485223259082317,0.02188187232819344,0.052695450073758865,0.038867189955515496,0.22269255492457493,0.15368900658561954,0.11073099027785623,0.10443691245107839,0.08909864454797922
0.06434855850649793,0.08268900016711188,0.01834044166061392,-0.07315900800083706,0.022098101052727585,0.050066737188697266,0.041479505185618576,0.22069503486727335,0.15118329905073696,0.11232612150321908,0.10669171352988295,0.09355021653153953
0.06921468084425728,0.09475213736856655,0.02553745652430925,-0.08247363332800253,0.02231615796357097,0.06041458735197179,0.041312802506888534,0.21511614512541452,0.14845279773282696,0.11007750061554938,0.10842908911805325,0.09598521059852345
0.07346946606361791,0.1025649280281583,0.02909546196454038,-0.08712391809366736,0.021926582366025682,0.06533876948002688,0.03913357302253641,0.21205871843562332,0.14827063968643847,0.11030506721995947,0.10937791547688959,0.09677243020340216
0.07495394735915299,0.10259825432963839,0.02764430697048537,-0.08856866957709053,0.022901080793402848,0.06481341082876335,0.03338376819258811,0.21012801058067304,0.145801168525717,0.11036246357638531,0.1090525191764564,0.09645366742211015
0.07652177731997371,0.102536010764278,0.026014233444304265,-0.09013768992977639,0.024730203584616015,0.0649353570145553,0.030890715002780823,0.21041434709322893,0.1463878171665549,0.10997957674226676,0.10917190061143878,0.09702787191197067
0.07700515097985326,0.1047642914422635,0.02775914046241019,-0.09093655317693865,0.024492974642467094,0.06697969975429305,0.03345588281035078,0.21013490424986914,0.1462193971406067,0.11278085812805745,0.10954709715428691,0.10159764123942164
0.07424211541086377,0.11214735956980701,0.03790524415894321,-0.09308481781320337,0.017921822511844095,0.07464362317041057,0.03869594363726203,0.2105178936604691,0.15164158691087834,0.11562010491407154,0.11379786567378106,0.1063182584720191
0.07841183026627659,0.11769754770343398,0.03928571743715739,-0.09822787981063476,0.019385959789364016,0.07812630656409425,0.03638923168013967,0.20956549795344218,0.1532017887836114,0.11523012559998422,0.11420565713900661,0.10670143839691554
0.08181607224842127,0.1153891525706995,0.033573080322278195,-0.09811037934162016,0.023889103543191806,0.07499217808296278,0.03152557892279262,0.20775189780424105,0.15108978216088823,0.11491864096993275,0.11428478375777032,0.1066747749398461
0.07646753828412464,0.11051830424284806,0.03405076595872339,-0.09324011349797742,0.021643567834072293,0.07203063286072565,0.031097879700386338,0.20597143162484932,0.14943724481035509,0.1106895388325117,0.11240289424511121,0.10665232471014494
0.07124815418929942,0.11011231591905085,0.03886416172975142,-0.0903557606022139,0.01678642240170731,0.07493247642763669,0.031648295977942005,0.20501491125749838,0.14843132988076593,0.11050007281100507,0.1113259595741445,0.10670091112676024
0.06193041827425942,0.1103814731552744,0.048451054881014956,-0.08576909058622906,0.0075042425658221395,0.07984487770382316,0.0357449995023101,0.20505864533774132,0.148464503891131,0.11521243999035065,0.11364990706071162,0.10660889849853591
0.05621828506878021,0.10759676224607762,0.051378477177297384,-0.08237623845244023,0.001999496581594337,0.07925001999985429,0.03635848014465728,0.19999873867890172,0.1434854023104104,0.11285171755370058,0.11434015061998944,0.10679526028013298
0.05401015866646309,0.09759602819375286,0.04358586952728978,-0.07500239129274772,0.004878801925693025,0.07045193930999365,0.03610896470158771,0.19712162570096775,0.1390993352140813,0.10962385995567087,0.11378616726009334,0.10614169165044576
0.058938985224590644,0.09529248341779102,0.0363534981932004,-0.07716838918335789,0.01176690831024712,0.06548265983228105,0.03639984178951407,0.19267219323310125,0.13838414915162273,0.10522113952977252,0.1091225599009741,0.10220493120704219
0.05621481813023095,0.10003107892565363,0.043816260795422675,-0.0776692720666603,0.006009030668888057,0.0721345487021806,0.035983134953168905,0.18964910236142724,0.13886748343349892,0.10238499106565042,0.10619062829884539,0.10136713489001488
0.048262779915468075,0.10534817745098093,0.057085397535512825,-0.07767596075276129,-0.0042585284311780465,0.08137558721174055,0.036649589865878206,0.19061123135357402,0.13622497454346966,0.10283292019404792,0.10710854515351927,0.10201546771492685
0.048671580508141424,0.10785475927512395,0.059183178766982494,-0.07779447021251028,-0.006051115859278978,0.08324228813970652,0.033885941799253805,0.18751600266526275,0.13131263043177083,0.10269019269961276,0.10402645734396955,0.09906196400793127
0.061603207082773934,0.108013256920192,0.04641004983741805,-0.08506191705132758,0.007380856826698814,0.0769843978439705,0.03624502207009353,0.18479563149811007,0.13104522189625425,0.10260979101336413,0.10131310162356438,0.09631201844719564
0.07344252394905679,0.11043931346088677,0.03699678951182998,-0.09269948429767653,0.018642032100078455,0.07361428339707508,0.03881897191413107,0.1852653888713538,0.13100472915535993,0.1030203304488483,0.10175729150067185,0.0966738750097419
0.0669813146492271,0.10233802010069075,0.03535670545146363,-0.0849938190352276,0.01499379293777579,0.06905033861675172,0.04109499543485356,0.18464942254502564,0.130735735136177,0.09987093818267365,0.10115757567335658,0.09666562175355901
0.06396893493682569,0.09739185550357113,0.033422920566745416,-0.0798486776002624,0.015014620162620883,0.06516531233036511,0.04388184691906915,0.17851763913185947,0.1258746723809364,0.09221100250763904,0.09658502484314757,0.09450242603972396
0.06909824421341414,0.10244633881540983,0.03334809460199571,-0.08558458284326326,0.017934607106105272,0.0675467506985288,0.03851920120454822,0.16993362265391584,0.12125035039021131,0.08955891297062815,0.0916455870170699,0.08672842782426254
0.06627810421599997,0.09296361510499569,0.026685510888995713,-0.07993633462989533,0.019762603221159716,0.06016125936651391,0.03387594983703623,0.15993597301969992,0.11339146460017287,0.08526087536087305,0.08421909544676766,0.07610229207682032
0.05690320185385225,0.0778332526380662,0.020930050784213946,-0.06752501738888089,0.01804677317456856,0.04970139932504764,0.028780650657294984,0.14997466894927008,0.10578714123098353,0.0797429326197455,0.07434046147836855,0.06907741595599318
0.05098919830087747,0.07493724100439743,0.023948042703519953,-0.06316879959380765,0.013892109583488247,0.049741965676670365,0.030908637785276874,0.14701169215195337,0.10615347827311325,0.0773679659870329,0.0742113828969992,0.06885526463071834
0.0416217857040285,0.08024919463578446,0.03862740893175597,-0.060562917709396744,0.001314097056043875,0.05979931457560543,0.03643449913447342,0.1471220889925543,0.10347859191404675,0.07718663447312116,0.07130237357065318,0.06897690119807753
0.03880001987063688,0.08229867580947517,0.04349865593883827,-0.059811912861889145,-0.002585907807042258,0.06251157814192251,0.039415841173928906,0.14042367105861994,0.09813916430149801,0.0724737364534509,0.06827312198982752,0.06672918376272569
0.04387579710546399,0.07728893192839871,0.03341313482293472,-0.060240941309359496,0.005239597332394924,0.05518089098367655,0.04353765041666127,0.1344060799888349,0.09370949734672498,0.06773368305526346,0.0636833280086204,0.0609424001624734
0.041325138679667965,0.07448365702216925,0.03315851834250127,-0.058039907355113086,0.004792913655981015,0.05371731939246793,0.048848615359453354,0.12995034913630474,0.09275242786941658,0.06757990616020895,0.06114474817193741,0.05838278090153928
0.03859082413763479,0.07699617369473091,0.03840534955709613,-0.05746236446284752,-0.0002502317648898712,0.05702899258338506,0.04629991390288248,0.12380521852409722,0.08826536768916295,0.06516296410206336,0.059162696966790954,0.053226632831815834
0.03655994721834954,0.07704626535168844,0.040486318133338896,-0.05667268363537146,-0.002428031181247211,0.05915031196348758,0.043512352721471186,0.1171509482132138,0.08311479916199241,0.059727401949162866,0.05348046206996906,0.0462955811453455
0.02582838279797868,0.07262741563938471,0.04679903284140601,-0.04953123840289066,-0.010240607337950267,0.06006320367373979,0.04386669071266947,0.10967157446211535,0.07809958505474106,0.054942812247784516,0.04883660097402173,0.046094343988243934
0.025896731590398944,0.0647500931832042,0.03885336159280525,-0.04543457905298152,-0.006270845402215625,0.051987456851253847,0.04386926998454201,0.10133043460704869,0.07311220932910793,0.04935949898409036,0.043186995833331264,0.0387857298177345
0.021790169473706843,0.04944870665639053,0.027658537182683688,-0.03549772173602559,-0.0029099003624188055,0.03932442872848078,0.04195218027826678,0.09750031935207346,0.06762331022203268,0.039727738394000865,0.03355635833254836,0.028899108849989547
0.010825137010150547,0.036859350072698596,0.026034213062548033,-0.0246311624144927,-0.008327030220144947,0.032037720957697115,0.04111334482854295,0.08874947311624855,0.05800956590871051,0.029988701901401644,0.023915039104371524,0.021825328062024325
0.001607021373317028,0.02880135879624622,0.02719433742292918,-0.014753370071393103,-0.012427165094174608,0.028607080205295277,0.04097772127579435,0.07656135989244948,0.04776441189927913,0.02450214572100822,0.016611461657203352,0.01374860401620586
0.005307568575897194,0.0201914670809441,0.0148838985050469,-0.01241626556083966,-0.0043323061469730684,0.01828387019789901,0.036513891753922445,0.06693694932569033,0.039778692283243954,0.019915004286747723,0.010470460728981527,0.008834586721926512
0.0162848377763662,0.013880532378371611,-0.002404305397994597,-0.014913682779883202,0.009124137393073313,0.005962572547050567,0.0366700330185184,0.06211905014275773,0.03776546122325814,0.019522772322172876,0.008195307118386634,0.007771791856217669
0.019071529101661357,0.012364065432690951,-0.0067074636689704245,-0.014878865827764294,0.012665025986087475,0.0024703354439430092,0.04112348161492958,0.05956958812526611,0.037636702070685264,0.019478812204580052,0.008430498546659044,0.0055976866880526905
0.02385715753536852,0.014687180740511575,-0.009169976794856961,-0.0194331917211183,0.01716083545600312,0.0028170613410221637,0.0462016680623813,0.059146712950803086,0.03809965397604046,0.01970375310265466,0.007952553889196827,0.006155094943566774
0.025907342730192115,0.012353623505673808,-0.01355371922451832,-0.0189194132964668,0.0197608651433357,0.00010504998616788156,0.04555682559499465,0.05684980419929083,0.035302674183285636,0.017352182318797878,0.0033086903229841186,0.0035335916958106903
0.014031929442340541,0.004241063701920672,-0.00979086574041988,-0.009601286775558354,0.012485782547374778,-0.0031540010677854023,0.04395791438929252,0.051091375832221314,0.030476566656232842,0.011377062743638424,-0.0016235114973352659,-0.0017978678586983217
0.005994658255260702,-0.0033781133632907506,-0.009372771618551467,-0.0016174784976679447,0.007803736030986799,-0.006106488216271646,0.041312959349788236,0.0412675140713892,0.022630163398807798,0.002437324021728332,-0.008646260457512963,-0.00669537862339433
0.006070207678530678,-0.010680746160965876,-0.016750953839496565,0.002959719195813714,0.011673259411127495,-0.013215465205271037,0.03876884795541139,0.03404159616601351,0.015194667342267234,-0.0029869780272124198,-0.014226767698010494,-0.011515220687924412
-0.0014521437496133162,-0.025698720150158443,-0.024246576400545145,0.01369200854842832,0.011410862327776692,-0.025837745359992236,0.043673651464396675,0.0335263076745862,0.014799256009932314,-0.0028931501482025073,-0.014077662082118964,-0.011593409995171909
-0.011104364202519588,-0.028297475937615838,-0.017193111735096255,0.019906468427066087,0.002291983055872997,-0.02297888365046762,0.041605387898900836,0.028885444435968664,0.010073713456656036,-0.005509856165194781,-0.016660580174134996,-0.014095397880561206
-0.016947647651033005,-0.030655427410151894,-0.0137077797591189,0.023516392334678744,-0.0011741968939981734,-0.02212905961356038,0.035865148501135084,0.0236482763603446,0.004903625113888917,-0.01039869390134756,-0.022022596510501577,-0.01907013659935615
-0.01925701800213426,-0.028188737330402093,-0.008931719328267838,0.023466160212947604,-0.005503811144333136,-0.017968956274746182,0.03363551015353238,0.02092325003439903,0.002118627662293774,-0.010701649147656487,-0.026494013956289406,-0.01960695743509744
-0.019312431079161505,-0.020830552976088764,-0.0015181218969272604,0.020245103996146693,-0.008626283097675307,-0.010464501360533339,0.033567153774312304,0.021609847102670093,0.0028653048567189384,-0.01072854258503033,-0.027323322338390788,-0.024578250592576442
-0.016550269716609244,-0.021410534982882385,-0.00486026526627315,0.01913924957107091,-0.005375970607222576,-0.013429708372204892,0.035671760465642924,0.018922029538713015,7.511486351067667e-05,-0.010650873696279794,-0.032111196325925996,-0.027431509413918326
-0.006359274535966609,-0.025818957551948518,-0.019459683015981923,0.01603550406127552,0.00639389607869177,-0.02338040661806782,0.03586883798231517,0.013596192090798397,-0.003483590019063348,-0.011086236013591952,-0.034770490919275865,-0.032005636041788466
0.0015110769911945107,-0.02898506238967717,-0.03049613938087169,0.013740217089775969,0.015452568581096544,-0.029640711000763733,0.03328308930165084,0.00908811289567118,-0.005065439941551203,-0.015750513630604705,-0.03437532531604844,-0.034782234542570234
0.0015686915159005205,-0.027844580311046516,-0.029413271826947043,0.013229613769176862,0.01484184051534291,-0.02875216812796719,0.03573196771905035,0.008621210005306185,-0.005102274804677506,-0.020381437815500943,-0.03455969694939634,-0.03429731652605797
-0.004154224297384469,-0.031151914242884323,-0.026997689945499857,0.017921192760563354,0.01138479542981228,-0.028711011989411013,0.036346272654905816,0.008663402788883721,-0.004999128390775299,-0.020894376507394542,-0.03447318051210412,-0.034571312467125054
-0.0032958242317518397,-0.03389241883018384,-0.030596594598432017,0.018176189983427994,0.013307713749995662,-0.031584223822268255,0.036089084271579364,0.008729110758474096,-0.005157777448530061,-0.020297021270415015,-0.034478810890526394,-0.03438872479519799
-0.009149062747645827,-0.03875702303670552,-0.029607960289059727,0.024130616434078857,0.010342903325258385,-0.033493781028249826,0.038390745367244516,0.00856675941408908,-0.004873668997859026,-0.01777395485803383,-0.034551074567533854,-0.03448616957037094
-0.014323328887739276,-0.04093927015156534,-0.02661594126382607,0.027956399959211998,0.006706539441472151,-0.033448401667498594,0.04389621509805215,0.00893063615517208,-0.006970436551138191,-0.02082967608576972,-0.03434799558290332,-0.034780455378345856
-0.00939606258259445,-0.04352253357624904,-0.03412647099365461,0.025660752795088036,0.01245301749971095,-0.03889650144866584,0.04114835816580191,0.006293314830990006,-0.007699389994480209,-0.023648491056978277,-0.036347286345624244,-0.0392875984684134
-0.016377140620725514,-0.04590576636746436,-0.02952862574673887,0.03094956372371154,0.00692095427147001,-0.03834402568877072,0.03900436497702472,0.003061612764328413,-0.007562677161292834,-0.022718623676568645,-0.037230855184816426,-0.037246814007740346
-0.028540518908275202,-0.04313289131820468,-0.01459237240992951,0.03555988817694767,-0.007760504747217686,-0.02862573940020174,0.04175073953294331,0.005835870255396519,-0.007488848628265971,-0.018736673013081066,-0.03681990135387744,-0.032128876220347234
-0.039135172472549926,-0.04350913039785755,-0.004373957925307651,0.040830744209342205,-0.017635548647358754,-0.023107720549079443,0.03895874020460217,0.005697628042337058,-0.008077875116648816,-0.018538999058065816,-0.03754034576896736,-0.03240720477025632
-0.034426435148894145,-0.037921695092370866,-0.0034952599434767417,0.03644446047312167,-0.01561348262108861,-0.020479479428023688,0.031834886447871316,0.0013542628836271753,-0.012362863891913357,-0.023281549521737513,-0.041838424559676804,-0.03650943997816852
-0.019158968535589994,-0.02863631736037769,-0.009477348824787707,0.023444594601814295,-0.005757131142713232,-0.018867282832450052,0.025960868514689924,-0.004310081193788957,-0.018078431124486982,-0.02836955630593317,-0.04736318089519278,-0.037021562081665196
-0.011335355435539592,-0.02018177075373634,-0.008846415318196754,0.015383742854118547,-0.0007034285086130322,-0.014260227642204557,0.021211426129075176,-0.006387644763266302,-0.020068669584801687,-0.03331889789534458,-0.05016944625583211,-0.03734298445206533
-0.008973479172189363,-0.028378759640530275,-0.01940528046834092,0.018832356303332663,0.004810671606868218,-0.023742037205724584,0.015957284001280124,-0.008721540244836548,-0.022554264748303975,-0.038545971812317545,-0.054264902868117984,-0.041945309270970205
-0.014421022700172965,-0.046383673627835256,-0.03196265092766229,0.03090306641100912,0.009093219025835505,-0.038840965315783904,0.011445294802881152,-0.014039255908116933,-0.027591811614331583,-0.043259793606076145,-0.054810256469632904,-0.04749247160924675
-0.009417324730801984,-0.053344546073643764,-0.043927221342841785,0.031574273434579206,0.017028370035238716,-0.04817654438034858,0.01094070956119186,-0.01925593675446034,-0.03490875173714713,-0.04892812708803277,-0.06192615408113361,-0.05523253534203359
-0.006614580144527714,-0.05142175864894345,-0.04480717850441575,0.028558554511036758,0.019204067222235652,-0.048951668652772645,0.011329523141124585,-0.021435355472646928,-0.03782107175617355,-0.050647870319750966,-0.06291024561501327,-0.0550277735108439
-0.003468922751874677,-0.038217286220892946,-0.03474836346901829,0.020556165784448643,0.01591124903566024,-0.03610487386833204,0.017803010843859133,-0.016499918575670767,-0.03272782353168318,-0.0463063468183611,-0.056817792013923354,-0.04934032055959015
0.0007380410120731216,-0.028112523735399034,-0.028850564747472163,0.013487249685835397,0.014369482375316168,-0.027783177983166752,0.023997488181112244,-0.011405560452353488,-0.02762480334609036,-0.038723874738005565,-0.052686461683106374,-0.04635478643441086
-0.007120637630064565,-0.030854210805938285,-0.023733573175873723,0.01823176657146369,0.008308794808357627,-0.02734821334337274,0.026365120426552143,-0.008570518524511454,-0.024966795808539863,-0.03577220236033627,-0.052102770931892986,-0.044033940899326496
-0.011111408563757866,-0.03609124928928146,-0.024979840725523585,0.0230393452682487,0.006895652754369023,-0.03043708273356936,0.02589004446396258,-0.009358763439637725,-0.025001411588630985,-0.03369684516363955,-0.050075447013724406,-0.03957177210325273
-0.0168220522865925,-0.03867091333830827,-0.021848861051715778,0.027737512273974356,0.0021351414397782244,-0.030581944574562484,0.02845826797226185,-0.006526126329619656,-0.020086054120798728,-0.028646897864331843,-0.044159053396141366,-0.034787081304234295
-0.013894046003361348,-0.03088314829565924,-0.016989102292297907,0.022356077377341174,0.0023861698235086554,-0.02400361699495466,0.03356997643617239,-0.0017529298258804954,-0.015576382832634395,-0.027835609667643438,-0.041924471507085746,-0.034449142014063364
-0.011585384866355335,-0.023351629883883073,-0.011766245017527745,0.01775560928027391,-0.0003224281010578501,-0.018157711972345603,0.031527581133901326,-0.0013572921519528244,-0.015053274763862753,-0.02551094398881189,-0.04243145150007188,-0.03442732792818619
-0.009279001577063857,-0.025633530744042593,-0.01635452916697875,0.018210926460356366,0.003573507162039989,-0.020993261263943245,0.025842944598871126,-0.001453790828458118,-0.015171787736566123,-0.026083098660065016,-0.04686187242330229,-0.0345299438436195
-0.005905169291997957,-0.031204927719118158,-0.025299758427120206,0.01847938621425228,0.00957186715356005,-0.028911753919103295,0.023442231335816934,-0.000981310777801029,-0.015118817488289782,-0.025154982748141385,-0.04482303688302083,-0.03271609826802073
-0.009328250007155765,-0.035209536241302915,-0.025881286234147163,0.023002637122729996,0.008706735670726915,-0.030294952045585678,0.023738092492425887,0.003276047686426529,-0.015113097984530028,-0.023057960784060364,-0.03979819311541098,-0.031453686819569886
-0.019349831675326137,-0.038917097526297524,-0.01956726585097139,0.028835461892595674,-0.00018991595668805205,-0.028409996477053657,0.023548650408854344,0.003280834906172555,-0.016733137082975545,-0.023859533496764458,-0.039486972644052674,-0.03446230810183592
-0.026554400635143475,-0.04615672568957583,-0.01960232505443236,0.0356165742299889,-0.0032979411709816277,-0.033274898409751466,0.02369967798866695,-0.001322520185687781,-0.020259504487901748,-0.026490591368338593,-0.04122272471940807,-0.038999776070452595
-0.026687321122711435,-0.04368352367439886,-0.01699620255168743,0.03529791118142699,-0.004674148547366546,-0.030963143359251738,0.023845415320491066,-0.006270689874151427,-0.02310812194108258,-0.02860132380709924,-0.042551806170998116,-0.03978798321526544
-0.026643712762974423,-0.03848804638415149,-0.011844333621177084,0.03242713723283578,-0.007499265707700577,-0.02587781427951279,0.02898516048842023,-0.004146983858816139,-0.020686601207634596,-0.027661938853913364,-0.039468485963231104,-0.03742008003940459
-0.02720521243480981,-0.0334437704941373,-0.006238558059327514,0.030738411115903818,-0.010404764675879226,-0.02011043196370563,0.030860455323258033,-0.0007048668137274664,-0.020075454342456535,-0.025659749174832762,-0.03662871505921918,-0.03745241503959599
-0.03118990007517052,-0.028486986255008825,0.0027029138201616855,0.030249209874627415,-0.017009204042777254,-0.013064674568243704,0.028298536512184377,-0.004097991832582349,-0.020218315764276094,-0.025912465994673135,-0.038905708543671806,-0.039731303167245886
-0.0320460131831459,-0.02318606035761878,0.008859952825527114,0.027479154103794253,-0.02036437673396355,-0.008010532653682517,0.02901989551203276,-0.006674566182195172,-0.020154455626699968,-0.025699901414570018,-0.04015476209826111,-0.03939408807951398
-0.029743439264992073,-0.02089175972110325,0.008851679543888817,0.025427771264327347,-0.0189605740587302,-0.005620526583297383,0.02630560149967272,-0.006331304653512022,-0.02020306108305397,-0.027561647628039202,-0.04392739821537588,-0.039503990603718155
-0.02922369042925414,-0.026223149049949886,0.003000541379304232,0.027630562046754677,-0.016233379275736128,-0.010950248480606205,0.02129573971005027,-0.00652251153591368,-0.020130278041783304,-0.030392615443873536,-0.045279004709517366,-0.04120159924436913
-0.029076044637116622,-0.028531984237808207,0.0005440603993084072,0.028302152907900363,-0.015320066396181992,-0.013355809570842602,0.021705744899297857,-0.006353998746324692,-0.020563615331269464,-0.030909840310554545,-0.04722912055561538,-0.04244370366583166
-0.02960890540287108,-0.028475123605504256,0.0011337817973668125,0.028235868235610827,-0.01616139116024132,-0.013056769612523316,0.023832554575602773,-0.0068650324010381325,-0.025198911314836467,-0.03119753063334188,-0.0473254257076493,-0.0415086519759326
-0.026584660576177237,-0.027915129136345192,-0.001330468560167972,0.02772884486037521,-0.012818531064458573,-0.014580416124532664,0.023169980059929526,-0.011424048606301097,-0.03022051630090033,-0.03593126552997651,-0.05235305948028411,-0.044718025399843986
-0.02411911970732736,-0.023967017299629686,0.00015210240769766644,0.023698037624819798,-0.012421730800379725,-0.011340041502017112,0.018965395350541474,-0.016566318347212214,-0.03545827442594271,-0.04054431319150155,-0.054840985480393345,-0.047150027911227604
-0.02194338651413942,-0.021437796803902204,0.0005055897102372097,0.021323080818174824,-0.011086455867173807,-0.010335634246524719,0.01874199467562349,-0.02122922899575874,-0.03815249763386223,-0.04100389930993648,-0.05494802059457897,-0.047598712346632356
-0.01694565474903232,-0.020672440926056586,-0.0037267861770242778,0.0186865815170604,-0.0057127332925617485,-0.01259535873551098,0.01652206362310191,-0.021529881761274117,-0.037591111272155996,-0.04094163362701152,-0.05946493312301984,-0.04977206845798919
-0.016090068202629475,-0.021266380047031956,-0.00517631184440249,0.01781773034344497,-0.005286388254582935,-0.013614960044125657,0.018462257416569254,-0.021479994003919627,-0.03784872363453769,-0.04066149618668357,-0.05759434587379434,-0.04931098898933674
-0.01383029175080871,-0.02626659118474146,-0.012436299433932763,0.02043876893140397,-0.00044302585595933476,-0.018592996696937793,0.02909481338079151,-0.014048911395297906,-0.030225674808377342,-0.03539860746545509,-0.05140782925755988,-0.04224413270636409
-0.014279840992761524,-0.035284942784613804,-0.021005101791852283,0.025506685636810984,0.0041587444538356225,-0.027574716457523872,0.0357035486928441,-0.00643489420719497,-0.02276968810265261,-0.02832517903164165,-0.044766215930112395,-0.03420559550493984
-0.013880006093389921,-0.03429946864856369,-0.020419462555173774,0.02381095633771605,0.00293184402799923,-0.026694219518198548,0.02940662703251337,-0.006674232763301243,-0.02281761357327153,-0.03039834669886059,-0.04477148434429833,-0.0366590092049671
-0.01632908913695337,-0.033123684567906306,-0.016794595430952956,0.024584302657721085,-0.00047988675192490657,-0.024947381967492105,0.023403427635186186,-0.005830150101593255,-0.022609396099827067,-0.030423316133665286,-0.043853900093953,-0.03641275246484625
-0.021617578269665524,-0.03379646307635499,-0.012178884806689504,0.028045085911013363,-0.005271199052715577,-0.02320452476819193,0.01874715962229983,-0.0036074482278496676,-0.022774435238634774,-0.028012548735615886,-0.04236344897460408,-0.03456383308437454
-0.021211051338613757,-0.03301394307921083,-0.01180289174059709,0.027850978515287544,-0.005443656113565354,-0.023267575883415208,0.013373313284289173,-0.005918139427591438,-0.022623491435259734,-0.02861005191265391,-0.04668937862959351,-0.0397660817159999
-0.024081263210008686,-0.03584376835443229,-0.01176250514442363,0.030504161802145657,-0.005790925184722412,-0.02333250453511448,0.009039845196599451,-0.006477293513718097,-0.02280981303547359,-0.028019545423186062,-0.04722395565100427,-0.04222602911140309
-0.021801099193844698,-0.03307787358178475,-0.011276774387940072,0.028218537849972438,-0.0054293954026115535,-0.022479784060510828,0.008248903419299142,-0.006564970938621354,-0.02220274189708236,-0.028821819337076213,-0.04500627824397313,-0.04160287195244808
-0.02612488281979766,-0.026400345840950402,-0.0002754630211527623,0.025863333892953335,-0.013165586822061833,-0.01382125378190029,0.010423292536553833,-0.0045431247000566055,-0.01814984799141123,-0.025616797525042503,-0.03902691549708262,-0.036946710970166996
-0.027446075303042772,-0.030694256779717127,-0.003248181476674368,0.028678834132594293,-0.011640696559581857,-0.01670657247009064,0.011495950453566325,-0.003793201733254952,-0.017522642349686,-0.02330112817646377,-0.03716974836932103,-0.03369152342175495
-0.021756963791612023,-0.03050435761660593,-0.00874739382499392,0.02628679935416464,-0.006125549870895807,-0.020087440131606533,0.01612599450909066,-0.0038793251830776575,-0.017767204232113733,-0.020928324391191973,-0.034575172996470324,-0.030059301653558752
-0.02008194089897454,-0.026027421144277536,-0.005945480245303008,0.023404222546117445,-0.007193783163144125,-0.01572486081975289,0.018940043454890188,-0.004447703194064614,-0.01752063643614758,-0.01816514238411935,-0.031568880179743034,-0.02918326482812366
-0.016771362583325847,-0.02076965702870411,-0.0039982944453782745,0.017938558132744663,-0.006284797388039376,-0.012231366723824365,0.018335418319447565,-0.006731128036694029,-0.017872577739817236,-0.023272946185418034,-0.032227302393919806,-0.029628224606459346
-0.010904182589063881,-0.015889881127642728,-0.004985698538578853,0.01325352477925786,-0.0030768205929454563,-0.010751425101032651,0.018903195671824982,-0.006152900269432608,-0.017279685398479915,-0.022862592972428417,-0.03170295505601283,-0.029147033605063887
-0.003989892929961322,-0.01095383188751382,-0.006963938957552507,0.007754226083507745,0.0018353405976800285,-0.00909636766584478,0.016227019085968748,-0.008751217227171879,-0.020243814346699387,-0.025936565924915507,-0.03423928178807788,-0.030165262095188636
0.001023607354827212,-0.01298661092111086,-0.014010218275938085,0.0056005437341467325,0.007577769953832279,-0.013151897557578228,0.011255174614569348,-0.013923450938135623,-0.022953570741318832,-0.028558910891544192,-0.039525274393386385,-0.03196668834889365
-0.003563331852929056,-0.018559392282167478,-0.014996060429238426,0.011140424285501516,0.0057057806239079216,-0.01607928788335756,0.01154298434110687,-0.011649938925994283,-0.02266313306907986,-0.0283215894708275,-0.037014828316570374,-0.0320597099394491
-0.013641671388557947,-0.021343749697349118,-0.00770207830879118,0.018185150011771668,-0.002348710247631481,-0.013896935821498506,0.013902804875505615,-0.008346958722352442,-0.022561975065787512,-0.028199560831158522,-0.03452951978376132,-0.0316400772723461
-0.011667407493422688,-0.016334611292403746,-0.0046672037989810644,0.013640840008381852,-0.002812749441872093,-0.010701236133273591,0.011551192359592366,-0.011601375496043365,-0.0247303266261428,-0.030335465604955276,-0.03944401625579435,-0.03417004596181393
-0.0014272695206073581,-0.007483932561599712,-0.0060566630409923635,0.004708890745896804,0.0020423439612374623,-0.007651037915463113,0.010961798417781844,-0.014053687245171578,-0.022849425178709262,-0.028880277202242663,-0.037272505507816106,-0.031770808976901335
-0.009010742597717863,-0.013644379413192097,-0.004633636815474244,0.011227322553010533,-0.002969482865381841,-0.008637944708703188,0.01097415994294975,-0.006958802076274226,-0.012557938265809488,-0.02291944088134099,-0.03182459708425102,-0.023935192076182644
-0.024887623949075472,-0.018246550739389113,0.006641073209686351,0.020664147595179462,-0.01606232212519137,-0.005518934436867374,0.012798198894874933,-0.0013953180415891661,-0.00974157032127324,-0.018687854516076182,-0.02710266294800488,-0.019666493039713722
-0.02609861925155024,-0.01544719954505172,0.010651419706498504,0.02062378310127488,-0.01761753059551769,-0.0028106777108649395,0.01391103020672487,0.0038192049823465,-0.004740303119259593,-0.010992724818320625,-0.021617592015738596,-0.0139231235333419
-0.021995764626050487,-0.015683730916448854,0.006312033709601628,0.018587515196297352,-0.013835660998773558,-0.004552017231507297,0.011554475733707301,0.006404316575107161,-0.002944037457708846,-0.007867932373087139,-0.019196523291524527,-0.011650374698703954
-0.016218243567792428,-0.010633237687602737,0.005585005880189674,0.012650990200911798,-0.011005237515158204,-0.0025649053652936826,0.010933955723906088,0.006054474452030586,-0.005276294403257802,-0.008281743729439992,-0.019410034849066463,-0.011799909581588709
-0.014375754606116484,-0.006470371625554885,0.007905382980561588,0.01075470856311783,-0.011041178806788607,0.001166474412701265,0.0110652558602886,0.006209799780556289,-0.005023544760466681,-0.008164920568949071,-0.019400806871656885,-0.011784863606719417
-0.019137607177758132,-0.012871786588067825,0.006265820589690297,0.01612612940598579,-0.013466537530721478,-0.0035593357180095167,0.011033463682943256,0.006170389101731874,-0.004874683298267297,-0.008060575467691934,-0.019253635337114827,-0.011722664535386403
-0.023984562655539148,-0.021528865639572094,0.0024556970159670495,0.023275224808633085,-0.012819084202545725,-0.009040153791217746,0.01100906099849171,0.006082754069924075,-0.007425557696849429,-0.010034863911350493,-0.01964440347576844,-0.01189881964818819
-0.021668207750048563,-0.015464821343046161,0.0062033864070023936,0.01875433131501996,-0.013519133996543503,-0.004960759686999999,0.011121159213741376,0.006690190464641579,-0.010597159380197816,-0.01086008234559948,-0.016918217661141384,-0.011192992544899352
-0.011604158768680801,-0.0016530360710794547,0.009951122697601338,0.006164089198697654,-0.010947529580097941,0.0037024932438883005,0.010550017617925957,0.008998171363413169,-0.009699691849490372,-0.010666565623971972,-0.013885362193988391,-0.009017531520496943
-0.008983844453747423,0.004500080908044363,0.013483925361791776,0.002604553956564238,-0.010901481764834828,0.009832017452698091,0.0064980578138411505,0.008344126786548785,-0.010588264993034023,-0.01030302232607227,-0.014727456858725818,-0.00944009323000835
-0.008618595403200755,0.0015522800013924034,0.01017087540459315,0.0032779939657754807,-0.009249945160585353,0.0061299356728356,0.005830816164479789,0.0107791038941026,-0.007455486822322683,-0.006038158492151194,-0.011864368156276518,-0.009019519776624638
-0.004236555654033273,0.001752281450835211,0.005988837104868476,0.0007625165849356651,-0.005464690133463641,0.0037961071094161592,0.006182651598391013,0.01075271905247725,-0.004847956622062265,-0.0059908563262238935,-0.009001022236697274,-0.009940472038631055
0.0014593417416431933,0.011360875295711417,0.00990153355406821,-0.006200050610848644,-0.0048831524085810145,0.01071753983415126,0.004118095621125273,0.006798432589699846,-0.005054025789992909,-0.01036899678816358,-0.01711826404912725,-0.011896435035555378
0.001475079195189806,0.011805421196753154,0.010330342001563334,-0.006786660775230177,-0.005096249324753096,0.010935872295390314,0.0029399798085409014,0.003792707641571302,-0.005549909893585364,-0.010559333524542056,-0.02245592440660167,-0.011756170283318988
-0.00394974607059933,0.012423967881258751,0.01637371395185807,-0.004060963151909418,-0.01050096873496679,0.01480935856798857,-0.001482346947359454,-0.0014553217449009453,-0.008189593664304842,-0.01136920456258058,-0.021537120351676504,-0.011714246625379798
-0.0034692832584710728,0.014880948112532318,0.018350231371003375,-0.005461206172334812,-0.010171122388647365,0.017011494576292554,-0.006632845609140679,-0.006511535334752445,-0.01252273251811394,-0.013292228525863923,-0.022578814131824432,-0.012279949263273814
0.0007687058661717391,0.011922312541725818,0.011153606675554067,-0.006965011615904847,-0.005252568140903356,0.011422262775791774,-0.01145263944893258,-0.009481267858655518,-0.01575375371444581,-0.013327730328022723,-0.024690298046732475,-0.014705941013504824
0.006447650266712002,0.007077931628815059,0.0006302813621030454,-0.007471702406103976,0.002976515329530159,0.0039202573161947795,-0.009411194126573283,-0.006182315100607881,-0.01256286918910415,-0.01259345066419881,-0.022150195753360604,-0.011900342413482569
0.006759679423396437,-0.00020924679796372494,-0.006968926221360174,-0.0029249961775551577,0.00724557059588538,-0.0036188442629637462,-0.004321326950697517,0.0034209392344836864,-0.008095081138235944,-0.010579823184583087,-0.01661776908132255,-0.006975216258134122
-0.0016351658372810135,-0.005608788320050559,-0.003973622482769555,0.0036529576995459278,0.0009526340374902892,-0.005418798326479423,-0.004168273096631207,0.006467166027768672,-0.006967784237056575,-0.010635576722107248,-0.013993697030019351,-0.00724937866198329
-0.009136403787929986,-0.012898805283613701,-0.003762401495683725,0.01110367790345441,-0.00284516580677001,-0.008119728020406348,-0.003977661159671671,0.0059960890184529185,-0.004759317136162915,-0.011268362867874845,-0.015036234717328822,-0.009593959264062391
-0.006729962266897327,-0.015807591402744788,-0.009077629135847467,0.010901096008999042,0.0015011173581702792,-0.012182399824850768,-0.004307315149473669,0.006271721170647211,-0.006998960312288845,-0.013419501841332233,-0.016984983435879817,-0.008551900816349394
-0.001110735514290959,-0.01072751671567135,-0.0096167812013804,0.005537247160084973,0.004228713116465067,-0.010674050542936858,-0.0018516371565921615,0.00604843954833128,-0.007775603055775212,-0.013125154686040414,-0.016789678727533053,-0.0066032562654289645
0.008380273110367126,-0.005601410730902886,-0.01398168384127002,-0.0014727017745963529,0.011093654941561828,-0.010048882035168828,0.003733970475047651,0.006283103110272688,-0.0070734121681918566,-0.013260218990374056,-0.01689688444944673,-0.006813353472450835
0.011003938320020563,-0.0032544140120447504,-0.014258352332065325,-0.004809960385210289,0.012406449043058614,-0.008367353309273563,0.0062632303179022105,0.005985150350513859,-0.002987147313270547,-0.013217341002599492,-0.01681146748236019,-0.006666458678299974
0.006015769752932552,-0.008860990163172941,-0.014876759916105507,0.0013292045832966044,0.010161606735820807,-0.01194240956926811,0.00572339373967473,0.006479662038614321,-0.0028374768596019185,-0.013182609207498886,-0.016901326418693147,-0.006816827681525316
0.0009281024132474081,-0.01589932056566125,-0.01682742297890867,0.007755482663342978,0.00904941047006853,-0.016399084404414788,0.00673750727172794,0.003679540014462889,-0.007258936357011217,-0.013303388949579557,-0.016754882738565294,-0.006597042967754301
-0.0016138302142608173,-0.013276650008866919,-0.01166281979460611,0.007672108994887449,0.005196958954948646,-0.012773499575653196,0.008234729526641723,0.000722140340521871,-0.007441161979297945,-0.013001982982718452,-0.017321329015616012,-0.007271567885148785
0.005923464902559739,-0.01049078716657639,-0.01641425206913614,0.0030589424795522254,0.01169925405307596,-0.012795772839960645,0.003475953148939708,0.001374390544160041,-0.00824751051799487,-0.015549469435744047,-0.021449908547310166,-0.00993845765446575
0.016246765586481905,-0.011457993037492266,-0.027704758623974184,-0.0018412994915263025,0.022700861873344035,-0.01884458359902731,-0.0013327701625799524,0.001140325998384492,-0.009890848808462091,-0.018957391409226778,-0.021642182869921346,-0.012103389368116944
0.024031734593918996,-0.022846350617908424,-0.046878085211827424,0.0001256601526064562,0.03518608486177143,-0.03528196617391586,0.0005932209869111434,0.008304964503753027,-0.0049496471806559725,-0.01553028932999376,-0.016724006436677076,-0.009380960595476077
0.018604591924680683,-0.029474906471921542,-0.04807949839660222,0.005805050375231181,0.03251366987399918,-0.03908016086067002,0.005971199974184922,0.011239950258407199,-0.002047684762534294,-0.013046209689565639,-0.013952590641413182,-0.006104825278835186
0.005735819193088063,-0.025294350030903277,-0.03103016922399135,0.00958247246263384,0.018836340655836163,-0.027751794872818324,0.003599061717292422,0.005870322776929273,-0.0050865360427864315,-0.013236106736358538,-0.015041931464863293,-0.009390663394810187
0.0036764489359071965,-0.016462525422587495,-0.0201389743584947,0.006221801144290953,0.01224322540604931,-0.019010027473005623,0.00033509162434253604,0.003394939253559545,-0.007964290425271022,-0.013305840026925865,-0.01700991535252116,-0.012069231021711731
0.00313016563398358,-0.010176976485926097,-0.013307142119909686,0.0032294929852600385,0.008364700016051281,-0.012418442118521989,0.00357064932208424,0.003873447484797854,-0.007257013515488196,-0.012969313940017359,-0.01666316808113889,-0.0115554809954775
0.005966935834703336,-0.00277189796764063,-0.008738833802343979,-0.0020732790278264663,0.007607600733130997,-0.005386310082875229,0.006312562849167154,0.001692099164454007,-0.008318414661322975,-0.015606969471825789,-0.0190571553383301,-0.012382919058508735
0.0011202797020458256,-0.0010313209574197924,-0.0021516006594656284,0.0008376224468326739,0.0018379017871759753,-0.0012037207410145888,0.005686802792178012,0.0010170409152188613,-0.01017768997980838,-0.020399939634009573,-0.024444122065791517,-0.014601425026438568
-0.011983564056970169,-0.005498256512492671,0.006485307544477488,0.00832657365031919,-0.009206312399801103,-2.1005676385960976e-05,0.008276730279890546,0.0010772025479738733,-0.010136796318464234,-0.020989627265037558,-0.021892743113575176,-0.012336537467841618
-0.013929542891256436,-0.013171952785849199,0.000757590105407227,0.012936931738272494,-0.008070160843277488,-0.0053060115015810365,0.01377517989155046,0.0028842049245165506,-0.009658331622037757,-0.018492658137922127,-0.01906223570059054,-0.011668199210293273
-0.01613152051779938,-0.021156436019108795,-0.005024915501309432,0.017947684534586502,-0.005183291762453142,-0.013522356957147883,0.016405076709984628,0.003993363288659726,-0.005512509567589074,-0.01342897011620629,-0.01951348814382832,-0.011798685495641918
-0.01600605777317713,-0.017955971152721403,-0.0019499133795442816,0.017297422397749018,-0.00720738203890409,-0.010561343199038625,0.015403607025445382,0.0016376617534908124,-0.004992711883290812,-0.01335744180759188,-0.019307757100829846,-0.011832313891443586
-0.006507267502969314,-0.008420751404175506,-0.0019134839012062014,0.008189477166742856,-0.0031403885522813964,-0.005871811144871581,0.013328608608108328,0.0013190900415811458,-0.004783537786757949,-0.012663127332780582,-0.01938825542533055,-0.011325075396466383
0.0031405748403085867,0.0018467421365245917,-0.001293832703784006,-0.0019030019020966856,0.0019827259726972715,-3.520948611423161e-05,0.015404800825994922,0.006343753761796571,0.00017949277725849545,-0.008767052635686315,-0.019415483425432985,-0.007180340411899362
0.006782681705604205,0.002476282691838147,-0.004306399013766067,-0.0045925146423718005,0.0055790967390639745,-0.00019944268099897247,0.016361136706452527,0.009001685455484118,0.002418371487999186,-0.007847945960498707,-0.019235576987049374,-0.006970478593169179
0.0032498031051245583,-0.00562428022423789,-0.008874083329362459,0.001175967199202363,0.006691816494391844,-0.007281076063880821,0.015706583252880754,0.00649274814597169,-0.002768740358558604,-0.010545507919132986,-0.021245231364094598,-0.011953209865625378
0.0010579855658542745,-0.016051998303117224,-0.0171099838689715,0.008144166663653075,0.009711720440216638,-0.015933671522067833,0.018574410831273983,0.0006735164606376592,-0.005325798401648175,-0.015462227871623881,-0.022078570967769814,-0.014567058627329162
-0.0013294374714341109,-0.02366222483346598,-0.02233278736203188,0.013132856410512294,0.01051948934085343,-0.02298813250640774,0.02151029756335559,-0.0013127589151232103,-0.0048191033436607985,-0.015689238203764666,-0.021798898260921924,-0.014135565837490961
-0.004537021276457918,-0.027741645761133544,-0.02320462448467564,0.01613802881898523,0.00930837705580423,-0.024866020841442685,0.020819995305775402,-0.0034365144915951603,-0.00572402436090697,-0.015844344563548773,-0.021956336716791515,-0.014449871915660549
-0.0035581811798249354,-0.021204411319118224,-0.017646230139293305,0.013037401348706576,0.007743876915409922,-0.018721151852937257,0.021451805771846483,-0.0034146007256803924,-0.007733836528693494,-0.015550466302380144,-0.021845934173448326,-0.014090096050890498
-0.006780614340768488,-0.012922481342801233,-0.006141867002032759,0.01045914261289315,-0.0006078716769191925,-0.009828318880173858,0.02028631859711062,-0.001318010046991414,-0.007494260040155013,-0.016396466661698084,-0.02197615070072208,-0.014957371389726127
-0.016762532559704103,-0.01597742314522396,0.0007851094144801249,0.016425238114447183,-0.008886785781719432,-0.008325920130577015,0.018726031729556447,-0.0008943726859998935,-0.007655922443209683,-0.018399395071718592,-0.021434909182239285,-0.016972926653926513
-0.024561718550618103,-0.020498610409745207,0.004063108140872886,0.023090693669894104,-0.014215364212925906,-0.008141478548057524,0.016238374519232105,0.0013037234690268375,-0.007511093608926009,-0.018228960692488423,-0.018866273155122678,-0.01674316976549518
-0.027082832456512385,-0.02800562414775212,-0.0009227916912397552,0.0283209389105591,-0.013829448992214825,-0.015160267173949665,0.012936431841563793,0.0010868089308807198,-0.007709282998507314,-0.01823334259415273,-0.02202967189094716,-0.01690032742463892
-0.023788707656731998,-0.02291266227536726,0.0008760453813647256,0.022935914716693095,-0.012591638353101505,-0.01092916604200211,0.016038925757542274,0.0009463653700736767,-0.007075593903456543,-0.018429729652129693,-0.024326850807579414,-0.016444636598448373
-0.0067656713713115605,0.0018210172165406243,0.008586688587852177,0.002764147178445197,-0.007838133866812137,0.0044425710185834995,0.021102657424213144,0.0033854411776231344,-0.0031135108159648416,-0.01605151905095113,-0.0192353047891841,-0.011723068004016849
0.011542439008299921,0.01901496340827229,0.007472524399972355,-0.014781353316016349,0.0017785608866967332,0.013645976250039313,0.025862454807664553,0.008775621580320556,-0.0006769175510230878,-0.010433263405830553,-0.014806391299635388,-0.00881914083665075
0.01608209727932148,0.022064238200395065,0.005982140921073574,-0.01994270109997449,0.004909139790542654,0.014434750696102118,0.025673811139252406,0.013424917574647305,0.000312990847872738,-0.007896398971552848,-0.014223526677496082,-0.010031590606780803
0.011036811019762198,0.014930533808269548,0.003893722788507339,-0.012545206495131926,0.0038824891527053417,0.009270391156907932,0.023204150759523576,0.01186884805349646,-0.0020606295290228438,-0.008479010485498458,-0.014399023070005344,-0.011839456612926869
0.006050664188080893,0.009654198141842464,0.0036035339537615584,-0.007413965246077739,0.001387510033967772,0.0067337993589518625,0.026027064013539908,0.011394847840819584,-0.0022353339239624508,-0.007407196607654023,-0.014311139585305905,-0.011819664164023832
0.0029686780951522795,0.009426154515269658,0.006457476420117372,-0.007066949665327191,-0.0008710019043035452,0.0072223381124542204,0.031215125576460383,0.016266624968459157,0.0024173538387956815,-0.005740178101645027,-0.014034611425630493,-0.011366071682592354
0.0061590657014532185,0.008950849582422066,0.002791783880968836,-0.007057609749667889,0.0018780400578429762,0.005981758035412584,0.0362326908314924,0.021302466794217795,0.009280201766021692,-0.003441352589381851,-0.009176370747707586,-0.006809255913052918
0.00892789688077098,0.0047474432471246554,-0.004180453633646333,-0.007174851131310034,0.00678148828363945,-0.0005010816428603366,0.041261208536919045,0.025929083335027178,0.015522143823491943,0.002053839949110251,-0.004864910377351555,-0.0019468646898548616
0.007997123300274902,0.004256167000607995,-0.0037409562996669156,-0.00654457669798129,0.006703008340352017,6.47234683645964e-05,0.04602664733744369,0.02638615725048915,0.018058128381083702,0.0068954225194400596,-0.0018961696395600697,-0.0018735855509882803
0.00405454384584175,0.006551756973929782,0.0024972131280880223,-0.004520272310191401,0.00037114713062568513,0.004238370957382005,0.046142702486556754,0.026256406745101143,0.022455258133262067,0.0100975137696802,0.0030956580273068233,-0.0012937577294947985
0.0037392609791949164,0.019524158570325287,0.015784897591130356,-0.011710963017812718,-0.005818401815553423,0.017168122777035152,0.0470283668846454,0.02640203172430187,0.020300620570752527,0.006774151358706399,0.0028283183239401523,-0.004349490698030003
0.008758969187711319,0.024635925926188382,0.01587695673847705,-0.016626396388816002,-0.0027080467965993078,0.02051005366694866,0.048771744724510326,0.026149539838879715,0.017119083013696003,0.004176900027996161,-0.0012620384228898781,-0.006864789153482911
0.011115277825562613,0.027245664762808555,0.01613038693724593,-0.019227945468391953,-0.0029159448952325254,0.021899172630692635,0.051070478023391395,0.026934706537466546,0.018327849122896683,0.00482083740384832,-0.0015029573034870815,-0.006985482115215646
0.0037443588748882818,0.034199396747487364,0.030455037872599074,-0.018907443864852966,-0.013335347686168661,0.03170721466834186,0.0562174727763361,0.029020468941270295,0.0219980707790021,0.00956000706440033,0.0031501113895693036,-0.004176352450434954
-0.006737819783596507,0.02937442167687453,0.03611224146047103,-0.01138374762029473,-0.021522475921933428,0.03205402993438099,0.0559189795215031,0.028694492960117054,0.022938677362089727,0.012266092978135077,0.0009538266796381862,-0.0019055934365825645
-0.014296822702146881,0.0248531783732304,0.03915000107537728,-0.004519616158164395,-0.0263410429464259,0.0322945355278867,0.05333982545530386,0.029293708070128696,0.022340049713425313,0.011815055472511101,-0.0023283194865573974,-0.004669201742654123
-0.01089600685082656,0.026769724711594122,0.037665731562420667,-0.007681225527588929,-0.024488026134681543,0.03235986108213571,0.058455394216789205,0.033762275927675896,0.024986560689846286,0.012368427865350104,0.0007196739628344804,-0.00362980504553841
0.003018074454800671,0.0396248623155776,0.03660678786077692,-0.021745714172804815,-0.01694449737303651,0.037813113840891116,0.06937773242719093,0.039305334751665026,0.030622840149465844,0.017398286383957236,0.006171470528787294,0.0009869898861897812
0.013809356340996878,0.05270358157733178,0.038894225236334894,-0.03242224953974526,-0.01305890439949697,0.04501167428474429,0.07647326461536569,0.049066964030850146,0.04039845765191534,0.026633432922441802,0.015648590063365646,0.01072425746933161
0.023117009267493417,0.05985072255271008,0.036733713285216664,-0.04184112734846608,-0.006927359837447535,0.04805790387033617,0.07593085642188555,0.05701679809295343,0.047884842062388785,0.03232109322137356,0.020341393687897762,0.014044715629634415
0.030738310679277018,0.0651540697730407,0.03441575909376367,-0.04800881909595175,-0.0015026297917720885,0.050222210681147704,0.07391856753146712,0.059260635927005735,0.04750542173081008,0.035337415895006295,0.023347956233196094,0.01833193958713659
0.035810458458647304,0.07494810301504548,0.03913764455639817,-0.05531056087218688,-0.0009301684935380816,0.0568357579874731,0.07409877732118868,0.05894304018558259,0.050335424987338784,0.039454560940411755,0.028484063953580666,0.023565371229172637
0.029340247922820105,0.08448911275892644,0.05514886483610631,-0.05763640809290373,-0.012537484296916377,0.0696016334471927,0.07380464737861546,0.05935537791356498,0.055019167308497624,0.0450372149558453,0.03374924695152313,0.028229257280091218
0.0258361670678544,0.09219160106736839,0.06635543399951398,-0.05928947759229709,-0.021096032021144677,0.07972253589834602,0.06683704778484294,0.05675797279655792,0.05560829737916806,0.04748588095815374,0.036291511534440095,0.028400292941546695
0.034043672952721135,0.10284362516426554,0.06879995221154438,-0.06795073737988332,-0.01754655369254016,0.08494372793263687,0.056202542201872305,0.05147941351714246,0.054826088030296226,0.047136701559409334,0.03602564322144663,0.03052080841976493
0.04106153542934692,0.10263350843718973,0.06157197300784281,-0.07275375645799634,-0.010547218344260789,0.08259640387284807,0.04646436522025786,0.046434944641962406,0.05270451174750581,0.04741290267230854,0.035963076781662794,0.03100528703897349
0.04189726415785577,0.0930570132154676,0.05115974905761184,-0.06758342017306473,-0.00529745242396843,0.07240481507249115,0.036336913097704836,0.04188447311282042,0.05305155420760061,0.047033374119188315,0.038259170426088854,0.03333928509206756
0.04390140152979808,0.09475128527313895,0.05084988374334084,-0.06968901158910057,-0.0035478816064301987,0.07236716509808858,0.03350748784481418,0.04127248249259111,0.052766381646264994,0.049569699447106534,0.0439184924008688,0.038368178618955584
0.03645080241207692,0.10007178288851917,0.06362098047644227,-0.06800296362090541,-0.013201395251792909,0.08264506208065663,0.03342816392747189,0.04170758048912117,0.0531344681709654,0.054696278007242576,0.04649576962251466,0.03867027926776174
0.028023654563547225,0.09804478777470774,0.07002113321116049,-0.062498070546658284,-0.021232862350288706,0.08391995636442805,0.02863222494566382,0.03908351122368058,0.05064680564861322,0.05263739357309879,0.04383633315740911,0.03821221044749979
0.02839527179810217,0.0996890272433497,0.07129375544524755,-0.06496468657368078,-0.021537339222051945,0.08561996271575555,0.023688276873455295,0.033859332845428323,0.045134153459661146,0.04696684798570252,0.03874998857607058,0.0340230842395549
0.03369753107273068,0.10545239524139856,0.07175486416866787,-0.06968778965119014,-0.01904330738009577,0.08827395235932295,0.018467554403805816,0.028695011595143736,0.04084974035084016,0.0445438086016712,0.039209646808533616,0.03352582302923704
0.03152400300382125,0.10963550069973989,0.07811149769591862,-0.07026212050537423,-0.02300293147473429,0.09379220092745624,0.014013987778574027,0.0259762309593785,0.04003700927165054,0.04486842899369168,0.04127844179192968,0.03361163652876814
0.02598779234357033,0.11042149643127834,0.08443370408770798,-0.0682358393215399,-0.02851161387858836,0.0974977053546043,0.01337359484028728,0.026867387476799526,0.04097898260536316,0.044624562880983855,0.04102893735642832,0.0335725012865477
0.0233675220811884,0.10999876588431774,0.08663124380312931,-0.06735613126713952,-0.030983916659904485,0.09761209948733253,0.013762721840348111,0.03118699309197701,0.042936495761492895,0.04493698571650993,0.04117435144433764,0.03360465042774468
0.024056012898907544,0.110297104126287,0.08624109122737948,-0.06749521389214766,-0.03072311525097924,0.09775014194339648,0.011594009571798925,0.0365464709069317,0.04438884745878512,0.042819100043226414,0.04106892972610932,0.033569313237312194
0.021234117912512902,0.10002028170603784,0.07878616379352493,-0.059915113113978055,-0.028915845643947405,0.08922979122218509,0.010973832633228328,0.04100234643513434,0.04761651167167887,0.042425864138314874,0.04115059409110611,0.033638038326218624
0.01645015910358179,0.072728582858925,0.05627842375534322,-0.04457862805100594,-0.020246026596921787,0.0649799894498463,0.010607085137840642,0.041226621734053594,0.04731439367043478,0.04714318627105813,0.04113257907381655,0.03321002184942542
0.018299542638992153,0.049838507872852315,0.031538965233860156,-0.03430039003146323,-0.0057963899157748066,0.04033594296076783,0.007727297879317396,0.03623920376094204,0.0448179857149375,0.04463235067660911,0.03917371652090497,0.028534714231598556
0.03132224356673032,0.04378259478377464,0.012460351217044316,-0.037733033766227685,0.009622339129359588,0.028374265947857517,0.0058599030440682105,0.0320298991129621,0.04037383212815899,0.0348572618728813,0.031205634416196143,0.023937011488430075
0.036506905750636885,0.039614603875555945,0.003107698124919057,-0.037685414982333694,0.016982118110961293,0.022053194662139734,0.005823787067192488,0.028948863676305378,0.0353285846284154,0.03145786444574758,0.02842098888600257,0.02304659934263922
0.03865518488269816,0.029122380108161733,-0.009532804774536434,-0.03380875731630858,0.024789791746618068,0.00987795932605645,0.000581250912599054,0.02381681597231567,0.029986296915222522,0.027629812618816377,0.026355581213155274,0.018854675244989464
0.041354925170149326,0.023889322304858737,-0.017465602865290617,-0.03222430394455407,0.03008463251265571,0.003439676746214887,-0.0014538049428510747,0.01865554703915142,0.027600085832472424,0.027090442640050193,0.02078217089855886,0.01857657320761916
0.03653642673368055,0.02662619915794264,-0.0099102275757379,-0.032446292863434215,0.02291891060416845,0.008672538975311438,-0.004026999514718842,0.013944544153890005,0.025662211103293014,0.025050115847485857,0.01595705019865748,0.016263294767014845
0.036623500222900056,0.026997521019144734,-0.009625979203755311,-0.03192716596721598,0.02243900604755708,0.009092776742325621,-0.006945460258344311,0.008226497849700337,0.019706340736923792,0.019062884600156826,0.011217353263558053,0.010640222275671692
0.04187721482952453,0.027096345471634666,-0.014780869357889867,-0.0348636197808764,0.027668199243399794,0.00626998348550905,-0.006527035753545321,0.006364024579406466,0.017568256593749488,0.017105624694982467,0.010817222586518765,0.008087866133835803
0.04913922373060059,0.027218123796268867,-0.02192109993433173,-0.037877754718060874,0.035195930809734016,0.0029126534357799775,-0.0064870850214828165,0.0035627219523835644,0.017255211399882554,0.01479275852747878,0.010950300336444195,0.008733288696935291
0.05360611785825036,0.03188386120678671,-0.021722256651463663,-0.04229261169889835,0.037750819759298414,0.0046702465220646305,-0.008898721070373422,0.001065331492211197,0.012622036200676812,0.009308260955711155,0.009157842245748025,0.00596137596638325
0.05195428951238635,0.020247100579480287,-0.031707188932906076,-0.03623546984096864,0.04245973121937818,-0.005764938732643317,-0.013936795804354559,-0.0012284063843359568,0.00749854688489765,0.004498602560114344,0.005969674000914409,0.0008948052763906337
0.043793872799952296,-0.000706275946974639,-0.044500148746926954,-0.022108902643366284,0.04454986018760252,-0.023018226770524203,-0.0138314093865334,-0.004339167174799179,0.0028509336249124433,-0.0003755280970012037,0.0005892608046288103,-0.004484033648817029
0.026417211246959654,-0.015657082025317556,-0.04207429327227722,-0.005373004032493242,0.03405004459287511,-0.027962409938604667,-0.009046819969680408,-0.0037648963402460303,0.0025468547107544803,-0.0004242396695645474,-0.002340549494479737,-0.006797349372517779
0.0063619625958693995,-0.02951730479623164,-0.035879267392101066,0.010882909446574808,0.020881678526659696,-0.03260117207298017,-0.004706023766837318,-0.003905521889636895,0.002009339799792084,-0.002930340656614516,-0.006637739882790578,-0.008861960399684392
-0.008865294765261308,-0.04084199193510268,-0.03197669716984138,0.025206667008680822,0.012209281032762035,-0.03598102848860832,-0.0016987186779245677,-0.005745640194659991,-0.0019975416088566784,-0.007970404204053542,-0.011874020470411955,-0.01456193672241814
-0.0166930114833977,-0.051517203698049414,-0.03482419221465172,0.03394585952805455,0.009741929926000094,-0.04352193465121728,0.003180878852052703,-0.006610048824878671,-0.003078187774076283,-0.007992609014548109,-0.016850735339961044,-0.019083443826419105
-0.01464231432863534,-0.05830103893607894,-0.04365872460744364,0.035617497091047244,0.014240476056217628,-0.050679338456335384,0.0031434989002301246,-0.006736232200581846,-0.007403871085470183,-0.010431029213511595,-0.02189662833144284,-0.025082047462376418
-0.014341326541464102,-0.06095151492621396,-0.046610188384749875,0.03806367467040733,0.015982909520357358,-0.05338016118874257,-0.0016757057776575924,-0.01150782119626253,-0.012866573362384559,-0.015998670463211597,-0.026703908380129083,-0.03180602887797939
-0.019059870617153352,-0.06426085685576209,-0.04520098623860876,0.04167275833894399,0.01277441015422473,-0.05459046415931067,-0.004435250337391998,-0.016186327559678106,-0.015392383560141255,-0.018547433233944893,-0.02635842844427704,-0.03136554612038415
-0.014800113914832129,-0.05367828925140187,-0.03887817533656974,0.034284087020311216,0.012149447502035914,-0.04545676987440939,-0.0038025339116859454,-0.016434656386656827,-0.01495893439628338,-0.01798857852954834,-0.024274530922953702,-0.02917237415262958
-0.0040286278879133625,-0.041386958062397235,-0.037358330174483874,0.023271096298283812,0.01718862948871428,-0.038848768212565686,-0.004783574802113436,-0.017115096620709286,-0.015667506824986653,-0.01898533320133152,-0.02440701279520869,-0.02998853523022563
-0.008888218074307922,-0.04129317888019578,-0.03240496080588786,0.025869916928003188,0.012558000238858176,-0.0361406080295218,-0.006771231397706283,-0.019268897622098265,-0.01970101718325229,-0.02084012367852033,-0.026158206549818333,-0.03390583590435326
-0.017011188858026913,-0.03898456999522213,-0.02197338113719522,0.028207644449238362,0.002035202620165629,-0.030531029829660394,-0.006178702898336658,-0.01857847880582625,-0.019961993789071986,-0.02087645629356682,-0.02734309556385642,-0.03471358673257836
-0.021508262406025564,-0.03885831915637875,-0.017350056750353202,0.030488006781320843,-0.0023870239222208585,-0.028051693406692058,-0.001617476438689817,-0.01405027635342925,-0.014977959933609487,-0.018937236048773638,-0.024553423041193564,-0.03225941030022895
-0.026759743522482143,-0.0431054816886572,-0.01634573816617507,0.035405518653215146,-0.005392916470723757,-0.02977450289268454,0.0034442623361337966,-0.009327408471854187,-0.012320151532466425,-0.018060273558490266,-0.01960990250338253,-0.026543621387034488
-0.0318380810934087,-0.043635153296793065,-0.011797072203384386,0.03755789516274475,-0.010802974570259426,-0.02764414443431174,0.008630967257220111,-0.008879829047308448,-0.01285450994990897,-0.018370869107669236,-0.01953889189917082,-0.02428237672108087
-0.03462323992238069,-0.043385494350556005,-0.008762254428175327,0.038516940051409966,-0.013466901236150098,-0.025540542057201243,0.013030208193496418,-0.009358858467932708,-0.012297661127617114,-0.018160062919242534,-0.01899111083374986,-0.024260727284805293
-0.03402797836141651,-0.045685062684390015,-0.011657084322973525,0.039716736086060356,-0.011242584357887227,-0.02786407715220248,0.013889489075364702,-0.013948825478156254,-0.01500414601555027,-0.0186576889894829,-0.021978286791913736,-0.02656866187915708
-0.034228665026734766,-0.0514349304266722,-0.01720626539993745,0.0432182277741389,-0.008461216261974906,-0.034158558884774246,0.011130408262635805,-0.01908307734417732,-0.020174945068899736,-0.023307887546151197,-0.024551977645787204,-0.0321883943809617
-0.02839178780328949,-0.05565434517790522,-0.027262557374615737,0.04249534460984275,-0.0006162900881024491,-0.041090248171829005,0.006419705998134788,-0.023730279895726757,-0.025365829969380325,-0.027917276744366854,-0.026474313886873217,-0.03511398392312431
-0.022250589634583196,-0.06369539770927134,-0.04144480807468815,0.042710368217500995,0.009215684979085752,-0.05284917454963442,0.004203332811955167,-0.024048057681225164,-0.02808057631358128,-0.028470145804776394,-0.03233807112678057,-0.03890548828237208
-0.018817035339127895,-0.06343255814260758,-0.04461552280347968,0.04100929088784328,0.01312816328131355,-0.053839887941995734,0.00276600542044926,-0.024272263527180538,-0.027181576770874537,-0.02818205367618799,-0.03474107015729011,-0.03976648430070231
-0.011755729678741602,-0.050619097659103864,-0.03886336798036227,0.030834837564141772,0.01371417403838153,-0.0445967977428895,0.0007067961540404777,-0.021801116042913724,-0.022860255773740186,-0.028612714414108353,-0.03387153628499613,-0.038838583333590526
-0.019187064251186478,-0.051247546212307794,-0.03206048196112131,0.03544587458207091,0.006749561130831872,-0.041071245636631615,0.00131285207325068,-0.016690403530071125,-0.0178266365888282,-0.026256232917977435,-0.031771976259266074,-0.03681557798210131
-0.026991026071927125,-0.06059587782498421,-0.0336048517530571,0.043927878324634365,0.003967840952043935,-0.0471101658133693,-0.0015944022055820759,-0.017054453657883252,-0.018271217576538712,-0.026323581861449598,-0.03212968390532576,-0.03709598944733639
-0.031610550394395,-0.060922633606701686,-0.029312083212306706,0.04621047821838321,-0.0004279413484952322,-0.04501829066158772,-0.004414597549911266,-0.020994769258669038,-0.020350376502273136,-0.028535665415305844,-0.03181468595549331,-0.03686805989234573
-0.0365880330082171,-0.06405630233056912,-0.027468269322352003,0.05098752681804133,-0.004949378776972979,-0.04614407517658822,-0.003940988064879501,-0.021804691458211654,-0.020092690836414094,-0.028302883846549807,-0.03221573519186316,-0.03716211949846898
-0.036260478002052135,-0.07137411370118422,-0.03511363569913208,0.05383996732484645,-0.00030023264642605894,-0.053637760209989595,-0.004214633928608896,-0.021275175882164907,-0.02025013746891594,-0.02824392361322811,-0.031269124771769324,-0.03636146643040112
-0.03207064758987568,-0.06860276581407196,-0.0365321182241963,0.05074173007883652,0.002096136633923059,-0.0524542674205918,-0.0037119309568809946,-0.022355014860260945,-0.020092001446806118,-0.03020692224047316,-0.029404513198122335,-0.03426752789904067
-0.02430228635782611,-0.05838648500706066,-0.03408419864923456,0.04051107948832768,0.0040465872831646965,-0.04561858801319738,0.0010208678693322945,-0.02396684965670754,-0.02062699897723645,-0.031023381022923815,-0.029308678484979346,-0.034599957878188085
-0.014357958561946146,-0.05158365746081448,-0.037225698898868335,0.03339133761165423,0.0116162361393585,-0.04399371807083509,0.003826550591081266,-0.0264223740278049,-0.0248020165668946,-0.030820568360840496,-0.03175212913998398,-0.0343079210035992
-0.009771710299848588,-0.056328569289183616,-0.04655685898933503,0.033664356998337246,0.01818615145483903,-0.05164109237550237,0.0031377313099849227,-0.029729485193300847,-0.025210148694001795,-0.03081271917767333,-0.035194258530861215,-0.03470627422480379
-0.013792985687708346,-0.05868101388228928,-0.04488802819458094,0.036359097647424996,0.015396620041972179,-0.05139368092591563,0.00578369168031063,-0.026639456644486116,-0.02539400986895527,-0.031052366425548653,-0.03181240641326208,-0.032161630127665604
-0.013732913465381658,-0.05099968943407276,-0.03726677596869111,0.03259918347891176,0.012067868888612025,-0.043469171153581114,0.011242191671903318,-0.02153098319754095,-0.022941164413499988,-0.028553054344304097,-0.027559142438037122,-0.02671043853297739
-0.018730957032792137,-0.03594614399636895,-0.01721518696357683,0.02759984117438866,-0.0005603245888235593,-0.02594028997198059,0.013872857173388658,-0.016885432514619835,-0.017844494054834674,-0.023529020189407383,-0.026445709878600204,-0.02394162496880312
-0.027379992908168477,-0.030915885304167567,-0.0035358923959990986,0.02923479550734978,-0.011131094775806845,-0.01725291726994069,0.013209731101514655,-0.016537117397812474,-0.017847093088494113,-0.023408851677329028,-0.029657914951617792,-0.02650816166160913
-0.031122937579931485,-0.04367929106930075,-0.012556353489369274,0.038066247589508447,-0.009381186827052388,-0.028038833774604928,0.0159699492999822,-0.016095010024264264,-0.016981845994605414,-0.022773736476089226,-0.030081123507135918,-0.026376784761932354
-0.039201147409165756,-0.05447073758711237,-0.015269590177946626,0.046544504388650564,-0.011879723774426572,-0.03454424877735443,0.020771173399085775,-0.01189996587431682,-0.015012335221959574,-0.01878284220112039,-0.02394240392183596,-0.02415944203724501
-0.04183302805562068,-0.055787159545837586,-0.013954131490216903,0.04812406970912852,-0.013389379749024322,-0.03558688356795137,0.021157811997594502,-0.011466144419590527,-0.015179343123929212,-0.018088860762653636,-0.02177641081107856,-0.024470731734365064
-0.04413364945123949,-0.059343866567798303,-0.015210217116558816,0.05107983682245783,-0.014343019911313192,-0.03722500057256289,0.021054836928000514,-0.011383311250250307,-0.015134602614730968,-0.01839590606287372,-0.02195732516357,-0.024314638579268952
-0.047483330919304775,-0.07150299048679055,-0.024019659567485776,0.059171622665212066,-0.011441679303295321,-0.04842028314620838,0.02124248567020131,-0.01360348867354662,-0.015406462190838542,-0.018330383961432283,-0.022037492161610567,-0.02467139966668476
-0.04440595742695693,-0.07169698538868846,-0.027291027961731523,0.05875719394046706,-0.00860703173482551,-0.049465427598627265,0.018932760205899322,-0.02109992168332349,-0.020778476129914607,-0.025748108429741505,-0.029274256783054328,-0.031193677052560907
-0.0392839231194412,-0.06602549676339566,-0.02674157364395448,0.05329560889316539,-0.006264459812970605,-0.04640165746334969,0.013125927275930593,-0.026791282090019446,-0.027942004985873296,-0.03384205079044966,-0.03763527239054805,-0.0372578343754483
-0.03436684650335081,-0.06134883272384714,-0.026981986220496346,0.04843353178106206,-0.0036555878200470312,-0.04413683039558902,0.011254202006719017,-0.029772162449335882,-0.032865065595497796,-0.037844682776506836,-0.039576121871748866,-0.04152142249599236
-0.028963805812605145,-0.055968415087070296,-0.027004609274465168,0.04324979479704063,-0.0010698983136191097,-0.041516469131416,0.015707801041936,-0.026544571647122536,-0.035863359522932924,-0.03870659887310076,-0.03963354441730984,-0.04217673845266389
-0.02852653354626158,-0.05171647941432714,-0.02318994586806555,0.04030928989148066,-0.002302072319889575,-0.037396685235343806,0.01594287553715434,-0.024033832275080345,-0.033308252642567045,-0.03830171891868288,-0.03945730380267005,-0.041977709403250955
-0.03500310998411708,-0.05038155918996407,-0.015378449205847002,0.0430392158646026,-0.00936330440215411,-0.03297524503080495,0.01653110551252255,-0.023873296528334177,-0.032999726971574855,-0.03881794068192698,-0.04019693936276251,-0.042161571643909324
-0.03614278658871397,-0.049148444964415935,-0.013005658375701978,0.043034336625200786,-0.012403378295838789,-0.031364513815748785,0.021128938510662883,-0.01870218230224199,-0.030157032552628197,-0.03587512151827193,-0.04211134829320176,-0.04163786383969029
-0.03441240517437938,-0.05865979894065318,-0.024247393766273804,0.04604163148751837,-0.005336709571958334,-0.04077401531093501,0.033525779773293095,-0.0013702940664674014,-0.012822723397220312,-0.02580275327968177,-0.03511799231707662,-0.0374697183978082
-0.03201463897985407,-0.05928455162374143,-0.02726991264388737,0.046509429771195626,-0.0023058803428205946,-0.043254397919231115,0.04906350074592152,0.023806666885036364,0.0071142091261180386,-0.016208581846775864,-0.031227916510321852,-0.037137460904849734
-0.026835995897421933,-0.05334713076328846,-0.02651113486586652,0.04054917799850121,-0.00021310239652258176,-0.03999810502303227,0.07129710323016956,0.05886303374307584,0.0322134526935384,-0.0028390331255127863,-0.02729735175091992,-0.034996759213533936
-0.01949442064765324,-0.0489940963075851,-0.029499675659931862,0.03445994207216095,0.00507699359217107,-0.038454780276096834,0.09673840212758009,0.11462724277792177,0.07109366099934111,0.024257207319729517,-0.012226364733606724,-0.027332733374616554
-0.0094146800131141,-0.041256484928051035,-0.03184180491493695,0.025502954733760068,0.01174060004857067,-0.03638054253296396,0.12394507209479773,0.18977239344168562,0.12313172676953364,0.06280602084337945,0.015953810899480673,-0.014066067285087058
-0.001967831520058983,-0.030968633980386143,-0.02900080246032717,0.01615140673237978,0.014332830116634847,-0.030246445253668763,0.14759689023704725,0.2686779632762425,0.186574251977503,0.11304517382278058,0.05304059219700015,0.012739761830036509
0.018682633589189375,-0.0207187469944034,-0.0394013805835928,0.0010553218807711597,0.029189471915556455,-0.030344926181157902,0.1595952737292351,0.3283917261432378,0.24972534016888986,0.16795188907255043,0.09626364277150773,0.038639404642077935
0.04853222014542825,-0.004062810355767999,-0.05259503050119626,-0.021509383930468008,0.0503216319806328,-0.028761410869311835,0.16278235645080258,0.3745899595219787,0.31186227856768034,0.22624630855396008,0.14426067143440297,0.07331155446206566
0.07457797019508153,0.012305223324876935,-0.06227274687020459,-0.04320223620261941,0.06811752212098883,-0.02486572130689821,0.1527566339658122,0.4173267139393624,0.3808865486325262,0.3013116308491684,0.210054992447043,0.12199856662611115
0.11238200186366597,0.03405425297718435,-0.0783277488864816,-0.07292681894144157,0.09557863123458936,-0.021491984557336627,0.13687419295695125,0.44958204509732946,0.44870557139247447,0.38265307787654795,0.283182826477767,0.17741859769821744
0.16026865958818567,0.0681701295103596,-0.09209853007782601,-0.1137433568862357,0.1262658666235177,-0.012253875646315143,0.11455644952413949,0.4578149600075621,0.5067885902558685,0.4629002139280834,0.3559519674098886,0.2379973931581256
0.1952077622962824,0.11220317814339574,-0.08300458415288664,-0.15389224583329933,0.13917282109753934,0.013914067329483972,0.07454268109273342,0.4269386162447738,0.544850489479315,0.5365341202170444,0.4373947291469952,0.30363099836173824
0.22961862080777734,0.16108482885001618,-0.06853379195776119,-0.1956534123408669,0.14931758960856523,0.04559961756980772,0.018859528092572287,0.35364472688635296,0.5517959366145524,0.599126572499662,0.5147319244121913,0.3738356076185361
0.2732734085077366,0.2134928167421644,-0.05978059176557224,-0.2431956635740165,0.16619625724629086,0.07718465702979294,-0.056919593652128446,0.2412534199407525,0.5249575409864089,0.6454088929628823,0.5856614945693915,0.44466607033077077
0.30898063165234196,0.25907279003990824,-0.04990784161243365,-0.28447050514288136,0.17923473065201623,0.10524486497732974,-0.14260942277049607,0.10445948644351331,0.47375227908492695,0.6755591885587763,0.6485989431513247,0.5145952573306042
0.3213210037780006,0.3120918104806124,-0.009229193297388204,-0.3170076874420299,0.1653692026573577,0.15152027508740082,-0.2306284367794436,-0.046988027175167896,0.4086593848889938,0.7004165458702025,0.7065361217566761,0.5832964190040776
0.313389796626568,0.37259083328385034,0.05920103665728228,-0.3425476323707097,0.12801198400807123,0.21614020046104646,-0.3299145518739549,-0.19321011663509732,0.3507559214324903,0.7326385359301795,0.7749160402136308,0.6594239357853654
0.2990071754434738,0.43265094785163655,0.13364377240816275,-0.36596832257882733,0.0828499591133244,0.28341699301521894,-0.4401178412037273,-0.3340077477199442,0.28977762055148754,0.7528158483938072,0.8330366396517681,0.7289098811308009
0.2859045921403098,0.48409647603863676,0.1981918838983271,-0.38554528942972555,0.0440969543132881,0.34102040624823393,-0.5490517934325219,-0.48496372118837566,0.1942319129678064,0.7304235632060482,0.8482711564708453,0.7652336848029035
0.24345889647565847,0.49769977843023677,0.25424088195457833,-0.3706160274405551,-0.004563840618224266,0.37572093794104633,-0.6419955380834389,-0.6574361335838627,0.050469462157515355,0.6328105859522754,0.7902033477755976,0.7466990403727823
0.1597868841191035,0.4460050453996441,0.28621816128054056,-0.3028668735695512,-0.06360641482514544,0.36590392619777434,-0.702603246175303,-0.8306460591053023,-0.1309392027123722,0.4607807249767928,0.6513862322677235,0.6563985229482451
0.06448959155018066,0.3574402461674552,0.29295065461727443,-0.2115900207470954,-0.11422886399679406,0.3252060505748424,-0.7224297758879326,-0.9690674927525619,-0.3154363259987759,0.24641371482750496,0.45956591802172575,0.5151190537571272
-0.01631362332073164,0.24864448837469286,0.2649581116954245,-0.11618940654319813,-0.14133737184021405,0.2568305844828473,-0.7145427236048566,-1.0710759822301386,-0.4863644050786249,0.014760258500313605,0.24048932061057487,0.3461063747434758
-0.0651448345591332,0.14271630250469594,0.20786113706382917,-0.039167059739315044,-0.1368077730759429,0.17587322027164587,-0.6923397314402849,-1.1356442022426354,-0.6301617703470819,-0.19221216590789197,0.038106051404985256,0.18724879416102072
-0.10483628461014055,0.050099049976963836,0.15493533458710432,0.028217834665966026,-0.12919011063466862,0.10324792144530189,-0.6621394304139562,-1.1735294859958645,-0.7390637936904009,-0.35330129491333595,-0.12072276584193253,0.05844556381978946
-0.14289730435457124,-0.026152055410492515,0.11674524894407869,0.08408990492472072,-0.12917544031981176,0.04496365277756018,-0.639202509164871,-1.2018857714521176,-0.8319649578134901,-0.4778585242057662,-0.24174047627779033,-0.044648853820609735
-0.1707721815847457,-0.08156809758138367,0.08920408400336204,0.12643250202178039,-0.12960237666977847,0.003774536155390599,-0.6186862269830491,-1.213858492929594,-0.9035305507408471,-0.5730818881603202,-0.3272527451964022,-0.11833866873716324
-0.19100675518721463,-0.12387172500624322,0.06713503018097146,0.15757712539290572,-0.12986033384762222,-0.028394855712623797,-0.5861637946715919,-1.188541198893595,-0.9348110858453961,-0.6281282106174267,-0.38032757583885257,-0.17350817273962355
-0.1902128774948184,-0.15433832446824378,0.03587455302657471,0.17200996117831396,-0.11351992688099755,-0.0589539675300021,-0.5383045638167517,-1.1182635573118334,-0.9153351361036258,-0.6408981542579897,-0.41015389175216027,-0.21436612898253757
-0.18308464250296885,-0.18676624528197008,-0.0036816027790012354,0.18408123936799417,-0.0898980904568665,-0.09509760820189976,-0.4829241601127088,-1.017294326589923,-0.8647479627880652,-0.6262054179809036,-0.4210798554503228,-0.24423587029023172
-0.17572887601862897,-0.20805749118216543,-0.032328615163536495,0.19239302606367503,-0.07121496465778947,-0.11964432898279764,-0.42755572981993223,-0.9060650610411662,-0.794303379243891,-0.590628416074283,-0.41487928405467306,-0.2592015070871127
-0.16605707732075214,-0.21476548351983213,-0.048708406199080005,0.19004481485509175,-0.05903011854143222,-0.1310216137299894,-0.3719285508726477,-0.7976735896196229,-0.7132828044430334,-0.5451058260935809,-0.3949736686672243,-0.26150742343180794
-0.16528178932856152,-0.21473305608762797,-0.04945126675906647,0.18967248391228708,-0.05828206435251804,-0.13155461242556732,-0.31670711815417407,-0.6920069559145914,-0.6325195937796622,-0.49208889183038046,-0.36740417193575986,-0.2534756186216667
-0.16555542198961593,-0.20981761155455153,-0.04426218956493565,0.18749643628643997,-0.060775994725908514,-0.12625806449434895,-0.25920320538759245,-0.5878964823655196,-0.547100309321049,-0.43373441449256855,-0.3317727452638653,-0.2335326677552838
-0.16278567788264492,-0.19774868796013734,-0.034963010077492446,0.17970910223940942,-0.06414489605541043,-0.11677114271192608,-0.20320733434494834,-0.4922925859603305,-0.46858804637580764,-0.37954356504681075,-0.2970791982411396,-0.21385215942322564
-0.15223268897452205,-0.17979724058375707,-0.027564551609235013,0.16697726074170546,-0.06257613676536054,-0.10403858302456809,-0.15325571904537666,-0.4042090034052185,-0.393092021686901,-0.325466836255475,-0.2588783765301056,-0.19082792312207345
-0.13741773811912003,-0.15178791693986823,-0.014370178820748165,0.14407839205928027,-0.06080823455427669,-0.08318136349469914,-0.10690767368232881,-0.32129326650221957,-0.319504208129442,-0.2653605450290064,-0.21863145618150923,-0.16573842809606498
-0.1177766637053314,-0.1263614841469886,-0.008584820441657202,0.12180448754957333,-0.05424198753051621,-0.06840275703906229,-0.06499429225676644,-0.24815209835749621,-0.251962095223253,-0.21228930686132097,-0.17766672719345228,-0.1382467866122631
-0.11032205115782921,-0.11407285614411619,-0.003750804986286979,0.11200876674505897,-0.054070237863785155,-0.05838511532837879,-0.034863205496405515,-0.1870565502536837,-0.19579745336910565,-0.16911253823350716,-0.14263133160683247,-0.11463312492541837
-0.10521090464561579,-0.10378465677701866,0.0014262478685971357,0.10369622500180664,-0.05360261781121274,-0.050889435304705806,-0.01630975560057702,-0.14281954312946385,-0.15655751203929572,-0.13905394810746763,-0.12010420515460724,-0.09702317961146172
-0.0870393694821611,-0.0866628898912461,0.00037647959091503325,0.08637919052607275,-0.04299269536242729,-0.043769190495243464,-0.009116173714022647,-0.11240830590501241,-0.1313563178975016,-0.11911893910219627,-0.10751862182269986,-0.0852522014897056
-0.0697838484394837,-0.06662863268754096,0.003155215751942715,0.06802606605626389,-0.03589685170875862,-0.03184743722512607,-0.0017750627589328731,-0.08699909933876698,-0.1102645835868105,-0.09865452948842102,-0.09478912487723087,-0.07714884879810745
-0.06673316162204351,-0.05834726387731714,0.008385897744726345,0.06300131567665225,-0.03748964973359005,-0.025183060726445793,0.008813324661697224,-0.0614020852678269,-0.08596554829653222,-0.07903079881668987,-0.07660305401134522,-0.062294466695474594
-0.05917162956892395,-0.05371907964716116,0.0054525499217627765,0.056148176446318636,-0.032396425949825634,-0.023814166176669604,0.01652444606628493,-0.04092800509455272,-0.06735764374053295,-0.065424843413733,-0.06507553275089976,-0.054192930827890506
-0.04681853983787331,-0.048410989734728536,-0.0015924498968552412,0.04777154391537342,-0.022465556726750255,-0.02540656255114526,0.0203628746514646,-0.028884857322701945,-0.055312019364303786,-0.05853690799725227,-0.05946165841672032,-0.051490759366387556
-0.04234145696577326,-0.043961178694611525,-0.0016197217288382861,0.04403116584196288,-0.020777990149632275,-0.0228809494341259,0.023745474869769793,-0.02104994810265607,-0.04557681907167022,-0.05329010758585841,-0.05672282683262847,-0.047478520134294044
-0.04160973519368941,-0.04368641692044754,-0.002076681726758162,0.042868947434100586,-0.020115388872086904,-0.023790038569693264,0.02807713969342035,-0.016902587686376393,-0.04045260459396187,-0.049080808909548815,-0.057614323403169056,-0.04701906262657777
-0.04228653412967292,-0.04912829468940021,-0.006841760559727311,0.04571364744498974,-0.01784664129121131,-0.028163223597658063,0.031102525933906375,-0.008823357218097518,-0.03326077199439483,-0.04639301604481727,-0.054481711622067636,-0.046914148879065955
-0.0461842148942186,-0.05644342714253429,-0.010259212248315676,0.050637377810374286,-0.018225871479194567,-0.03337779096553906,0.03619373658954962,-0.0013809516063921854,-0.02771361059273599,-0.04604900064414722,-0.051982789729590854,-0.04735011858764573
-0.03963098910690149,-0.05864930913951519,-0.019018320032613688,0.04879170485221864,-0.010469613262427738,-0.038103597044872796,0.041528773100767094,-0.0016647114075468135,-0.022394524033094925,-0.04368278594990478,-0.051636303909664644,-0.04454242266384691
-0.02934074109616955,-0.05152365838578175,-0.0221829172896122,0.04122964233323541,-0.0031963878558433764,-0.03657541517453163,0.043902595481881856,0.0009510718354793799,-0.020152378196727053,-0.03867940409632503,-0.04937230896070424,-0.04166470793689559
-0.02652738375310633,-0.04813369456135847,-0.021606310808252142,0.037629068554114006,-0.003234552915745639,-0.035330265471567694,0.04427612391245521,0.006280491404242146,-0.017893092750148762,-0.03805192649943049,-0.049394502759864796,-0.042181543019801926
-0.034358672151453,-0.04890731230814819,-0.0145486401566952,0.04090252581721374,-0.010396349082437402,-0.030849983893751834,0.048163246499795836,0.011115784451043102,-0.01418530504901785,-0.03367067237532466,-0.04446097694133315,-0.04191240700922586
-0.04169295442875755,-0.046348569531005794,-0.0046556151022482655,0.04368859055432702,-0.018702622533664465,-0.02594538723580922,0.05132364528754696,0.016397902481478047,-0.012141226766160695,-0.03353929702612281,-0.03966191218802409,-0.042063018249175195
-0.04154897158752236,-0.0390719462871011,0.002477025300421248,0.04110993718704774,-0.022169838266565114,-0.01868701497203363,0.05434988629292353,0.019442690238416348,-0.008141774291971809,-0.03141090024297203,-0.03458148613003649,-0.04203168196946055
-0.03451701205787537,-0.03362639414141508,0.0008906179164602776,0.033703080033185145,-0.018042659782975597,-0.015572493469793695,0.053091575439620196,0.023541690921729936,-0.005340905778080448,-0.03087787664479005,-0.0365803172396097,-0.04164771030710021
-0.026650204036196015,-0.03392675213604284,-0.007276548099846826,0.030454191448583075,-0.010094346196425777,-0.020750807300543184,0.05157000017205858,0.029119741491734456,0.0003105089861690694,-0.02869887867734512,-0.03484600010598553,-0.03698089788419111
-0.034625809379260575,-0.03833813770146622,-0.0037123283222056437,0.03676749445964991,-0.015340162714875335,-0.020180228034165037,0.056614002903376724,0.03319270932754425,0.002684325295578071,-0.023034475645354425,-0.029629091802266,-0.032291705361297975
-0.03938871134451093,-0.04370043623906446,-0.004311724894553528,0.04103226353594012,-0.017564045410122076,-0.023874420106523568,0.05910667912768862,0.03472876416981826,0.002420592103455129,-0.018814216582337784,-0.0295423775507749,-0.03193306047773506
-0.03434205254770084,-0.04835102835850775,-0.014008975810806908,0.04110208324228115,-0.010197901527880793,-0.030783649877530794,0.05893274393142047,0.03632981113266945,0.002592336977818762,-0.017985390320036095,-0.029312403325052167,-0.031816098988244106
-0.03621268310550009,-0.05403499761366614,-0.017822314508166067,0.045510085619127595,-0.009069277695564067,-0.036240572562854075,0.056847399470886024,0.03672965618374337,0.0021114107876593563,-0.02046287876667016,-0.02994518002867307,-0.03406676040609204
-0.036559512413931676,-0.05580484310833664,-0.019245330694404962,0.04548290028849914,-0.008449906999096073,-0.037912197847614355,0.050860445976533844,0.033812086707529325,-0.0025977830636843076,-0.026209399329961205,-0.034042899332380964,-0.03991067026057565
-0.03190170535430939,-0.051042224464604956,-0.019140519110295576,0.040812162734849985,-0.006063864578898906,-0.0352164471317423,0.049180109973295166,0.031478896372007244,-0.0052170897886082085,-0.028069099613219767,-0.03418959389596165,-0.04208795183549828
-0.034106707058438275,-0.03876702539713185,-0.004660318338693576,0.03614325140888862,-0.014917918351348355,-0.021934623918350177,0.053713634732525044,0.03640059778204955,0.002531089475942319,-0.023340014871965614,-0.029770937025726304,-0.0418001590951038
-0.03704599680804255,-0.03280473850550936,0.004241258302533178,0.035400258041175206,-0.02140083123612531,-0.01455273467115904,0.05921610117068779,0.04159842414162721,0.010130832509208279,-0.01845983294465232,-0.029563453772618063,-0.03659459102304335
-0.029119511062178652,-0.03371584051653583,-0.0045963294543571965,0.03057204200399895,-0.012840736057747673,-0.018387957064980445,0.06122388562959606,0.04423516500476456,0.009325852791953176,-0.018895968068340985,-0.029143162135544746,-0.034951319853212225
-0.02163898419228492,-0.0339945819226076,-0.012355597730322692,0.028204992706829485,-0.005260566082299341,-0.023537224851691473,0.05637933342884242,0.04352692040579508,0.007479598328100332,-0.02084598406489263,-0.03195564248419696,-0.03703333094165291
-0.02387297081406616,-0.043741075949925004,-0.01986810513585885,0.033890223130616695,-0.002708060960169696,-0.031806208232722455,0.05158368490930977,0.038827608572967756,0.007517957518824896,-0.02091208342564743,-0.03486915789869926,-0.03885371423335988
-0.03145623684599928,-0.05108084825489574,-0.01962461140889647,0.04101396357398146,-0.005558795531484865,-0.03607656442866491,0.053531623131617224,0.036084939160527296,0.007632269072302097,-0.02009732530206187,-0.03396387396291832,-0.039193830389273175
-0.04185975734118782,-0.050419250673334734,-0.008559493332146933,0.0453196291764194,-0.016196213441748458,-0.02971988688209175,0.05911768755160817,0.036832408404388985,0.007309905588922324,-0.0183001277426824,-0.029524772498031586,-0.03624684323513159
-0.044101937192847884,-0.048501127045564155,-0.0043991898527162765,0.046103881297109316,-0.020673532041039482,-0.026080987988630597,0.06346989249661623,0.04312292782076364,0.00991112528473396,-0.015988172899686633,-0.024752213254503785,-0.03246391680017799
-0.039104753648776316,-0.04854086549301395,-0.00943611184423764,0.04359404501930551,-0.015292006834758417,-0.028864573596807493,0.06405172401086955,0.04902324891626428,0.013179424437734325,-0.012560907447757445,-0.024689244959452423,-0.03229489621081583
-0.02878772415399998,-0.04873026391377461,-0.019942539759774627,0.037995716421189735,-0.005261063039006104,-0.033430252039118924,0.06392014395449107,0.04856799150653251,0.010346091024925744,-0.015488729917833304,-0.029331645496522365,-0.034885232863159386
-0.024134377725693996,-0.04671153007616776,-0.022577152350473764,0.03553504681507078,-0.0002859222052462478,-0.03447951478005768,0.0639504644815566,0.051608776376726916,0.010629920561559576,-0.015149114568184243,-0.026995231913345758,-0.033699742303346894
-0.029018662622656403,-0.045560305982781234,-0.01654164336012485,0.037175582854877695,-0.005966596041708244,-0.030790177772607754,0.06401450756481389,0.05427943512924292,0.012763516255601903,-0.013039790444518948,-0.02409298960267539,-0.03183096968063536
-0.029169420676025067,-0.04135062671389092,-0.012181206037865851,0.03560407633885169,-0.008231522518972884,-0.02597679065090918,0.06352627743426023,0.054001396065291654,0.012507762871138764,-0.013320055524156918,-0.024495840335636843,-0.03199342379370661
-0.028971751211423997,-0.04288846101641465,-0.013916709804990657,0.036012994969409226,-0.007653050124931618,-0.028100183180830244,0.05902338661858151,0.053614947176128774,0.012267569862893818,-0.01314080314752682,-0.0248069335470766,-0.032185889603502764
-0.0240085216486695,-0.04360889816846609,-0.01960037651979659,0.03376823915592929,-0.0030601707726103143,-0.03170223814273119,0.05370115107370315,0.04948087356367177,0.007778714695806233,-0.01329829468866221,-0.028992955440563045,-0.037210262903710156
-0.02139756838402577,-0.04377568874453531,-0.022378120360509544,0.033269585396417375,6.033918767614787e-05,-0.03360483477296439,0.05099370954299084,0.04880159973544728,0.009397637035601541,-0.013093877735641345,-0.02960322051231578,-0.03965875984856634
-0.02181136807368323,-0.040989048776419686,-0.019177680702736465,0.03135341286151489,-0.001550619838568959,-0.030857930609527125,0.05198422659599997,0.04956709306621532,0.010184264894533036,-0.013746728019346614,-0.029258394234406217,-0.039570321380759874
-0.02179234210427314,-0.04049238717920103,-0.018700045074927882,0.03122442595435236,-0.0010244031743014267,-0.02980093464094569,0.056027771634609334,0.05365828591902673,0.010332228434401288,-0.016174708832514154,-0.029854465770836912,-0.037387030349236704
-0.028712041638109892,-0.053627084707555894,-0.024915043069445992,0.041064907492240905,-0.002295973959377868,-0.038913735900419744,0.06358171911838587,0.061619710595062556,0.015509298624823352,-0.012932130358021822,-0.026502489658600383,-0.029965404315998267
-0.03202499969452555,-0.05901939971711539,-0.02699440002258986,0.04634861784358886,-0.002826499294552325,-0.04351037838646485,0.0665770996767361,0.0692086774128895,0.02324770225705754,-0.0037777577322948654,-0.01944931458612408,-0.024471452358949895
-0.024157857859413913,-0.05079432189768564,-0.026636464038271745,0.037618791416964704,0.0016579696201342602,-0.03780528889594759,0.06103303950924331,0.06848569266621538,0.024617685882857322,-0.003657794332160189,-0.01957367599981656,-0.025111029949735443
-0.014568534754455168,-0.03599025721991698,-0.021421722465461816,0.02568547279067931,0.003335994657540973,-0.028552518861609845,0.05885901832177124,0.06644911287372884,0.02290333839911875,-0.0058624280383849725,-0.018760509821379983,-0.026492125872132007
-0.009112211461271006,-0.02142312737767012,-0.012310915916399129,0.015568182025290233,0.001566986075109545,-0.01658365093399493,0.05881422023951508,0.06685751040083329,0.02734003155476489,-0.005556895453755814,-0.016564351414259156,-0.024042994785752825
-0.011471645022177259,-0.018330643378802497,-0.006858998356625243,0.015189476169181067,-0.002588984155645144,-0.012490097250606059,0.05918188293284901,0.06596056593325945,0.02777029458592027,-0.005721793200366571,-0.018797474857528834,-0.024669994370918817
-0.014539284414224975,-0.023276668694072467,-0.008737384279847491,0.01871295516837383,-0.003097719658833862,-0.015432783553043356,0.05649501590210091,0.06399935822245414,0.02728299247522757,-0.005625353995274906,-0.01951251157318961,-0.022425139691010662
-0.013754074038974058,-0.0229694469376303,-0.009215372898656251,0.01765117824575335,-0.0030348592966084383,-0.015408002490099701,0.053050835107304656,0.06412588053993579,0.024319037294084685,-0.0056858615847108695,-0.019305021085247835,-0.02170780594061807
-0.014529019532303034,-0.026059950195547906,-0.011530930663244884,0.020239495072261988,-0.0014451551106210768,-0.01821596091433552,0.04948456732363192,0.06417566462087132,0.022668041051632344,-0.005644484812385772,-0.019417673709454193,-0.02196307098704929
-0.011506004810537152,-0.02814714996622298,-0.016641145155685842,0.020231626975634506,0.0021214424131091167,-0.022305579095135787,0.048619630738128854,0.0639178831449804,0.02252610117239998,-0.0056968453602808024,-0.019342622287246168,-0.021736686683047235
-0.009079264732737373,-0.025542061008176832,-0.016462796275439475,0.0176411378250922,0.004592575384575252,-0.020669427646866204,0.048957593229598084,0.06637923729081407,0.02323099527985538,-0.005313128013526701,-0.019401353119005073,-0.022049761612248434
-0.014353080056876003,-0.025798991299479462,-0.01144591124260347,0.02029765450373482,-0.0013228353514034455,-0.018749152250009962,0.04872385920347384,0.07183000200796091,0.02701174462222344,-0.000529443784359815,-0.019345954700312664,-0.021210934404884956
-0.018503213246836347,-0.02085692234959456,-0.00235370910275823,0.020403565573764285,-0.007735851131251473,-0.011296254123059237,0.048956618111200216,0.07627199259301563,0.028505984912892763,0.002268046316696496,-0.019450729736073046,-0.01919457479129047
-0.019575630046341604,-0.023388762717006684,-0.0038131326706650863,0.021541148545833447,-0.007881933769703826,-0.01281520567840583,0.04704764371945414,0.07673677388581553,0.03012680365290062,0.001537152175624452,-0.018930741476921007,-0.01939561061071987
-0.01686174744713692,-0.026237879764509763,-0.00937613231737285,0.021184351837546554,-0.0029766623297000565,-0.018158340689854932,0.04588773640006947,0.07710263178127434,0.032441596040927986,0.004288221138067474,-0.014798388888067117,-0.01935286780658839
-0.01964048423294274,-0.025399229713054496,-0.005758745480111769,0.022788278085242353,-0.006767103788179325,-0.015621377954234707,0.0487402552384127,0.08163427119732632,0.037918632796334235,0.009483699992773327,-0.013952081761139334,-0.018967556850830222
-0.03372350840580898,-0.021213641136102374,0.012509867269706588,0.027971184604486436,-0.022737142158858137,-0.004365868660225914,0.05385761461835676,0.0872999067471495,0.04277719231655628,0.014592465571469138,-0.009167575189305973,-0.014309018527767406
-0.03688542162713589,-0.022709032214053904,0.014176389413081974,0.029574019613144265,-0.025849241213860993,-0.004651572672590421,0.058744136549966054,0.09481891956207832,0.04753236364164307,0.01747117523505981,-0.00649080892132665,-0.009602596991992075
-0.029421161958966012,-0.02314107410082096,0.0062800878581450404,0.026034145748270798,-0.018204989199090957,-0.00759964601912717,0.056642236384589,0.09658730131675325,0.047864926806086686,0.01622759166159548,-0.006920826980818706,-0.009276772858973967
-0.019371608937935426,-0.018750844110191185,0.0006207648277442361,0.01916216800448716,-0.010204368025157841,-0.008822479977651948,0.05130588054011762,0.09217282376240371,0.04790017206809056,0.014479857185587355,-0.006697018365273376,-0.009154733224970723
-0.014328246246166954,-0.017924033165706475,-0.003595786919539539,0.015840398205216363,-0.0058793417720302745,-0.010768767762321165,0.046185853538896135,0.09220462761083657,0.047742961662528616,0.014396758394877108,-0.006516990854158153,-0.009504018848575815
-0.006741865127056849,-0.013388794231304955,-0.006646929104248117,0.00992982017498642,0.00017037265157539424,-0.010697280359256652,0.04347908110179441,0.09679923526944575,0.04997139268229264,0.016329529507628383,-0.0015593482202337888,-0.00687491628334277
0.003289363429601009,-0.008137789609027566,-0.011427153038628585,0.0027521862448652954,0.00721333528190095,-0.010120029086136621,0.04397682716152546,0.10199658706720462,0.055867044969615705,0.017259424244073913,0.0010540151326010878,-0.0036415247497577313
0.008505328224624365,-0.005317652412104991,-0.013822980636729364,-0.0014572477653446538,0.01194133302434963,-0.009453100605143793,0.04363231863341134,0.1065323643571085,0.0579210941460348,0.016826405786668143,0.0006369878654082265,-0.006401130618528236
0.01381315896368897,-0.006537296171411527,-0.020350455135100507,-0.003952051844690802,0.017372622920709135,-0.013521146438540422,0.04399040310126121,0.10703815810977066,0.05822316723864535,0.017263201091306104,0.0006193788058584033,-0.006579889948664472
0.01651403456179285,-0.008265164485383678,-0.02477919904717653,-0.004849625182633193,0.019937138203743297,-0.015808687096943178,0.04316588128657217,0.1068726638530529,0.05540570944651188,0.01629920874553604,-0.004593564600333165,-0.008719249615020984
0.01387859817981194,-0.00842379095764996,-0.022302389137461912,-0.0026289502777443563,0.01753145010230314,-0.01545586705625156,0.041030422225450905,0.10735948558634319,0.05291429910022416,0.014733168586536925,-0.006496584205857771,-0.008960354928762945
0.008260282833254251,-0.006073008374537311,-0.01433329120779157,-0.0018486162652264116,0.01122041473558532,-0.010047153596008395,0.04307678116995425,0.11192838711579109,0.0580908624249331,0.01957672661193636,-0.0018619948911493226,-0.004319746693697526
0.006206202362871775,0.001445727899747124,-0.004760474463124662,-0.0040568607684611825,0.004967563483315426,-0.0014529945958288186,0.04451968904485578,0.11705055649332706,0.06282976428581023,0.024500477879065206,0.003551251113916585,0.001043541780792465
0.011532736425549401,0.012496372841720917,0.0009636364161715065,-0.012216026252615404,0.004477659034295282,0.007022753761143607,0.04644900934319085,0.12203240440562836,0.06815284866768757,0.029714727629617625,0.007506935418225131,0.0035033238394156776
0.02088073858145615,0.016866560760429365,-0.004014177821026796,-0.019682471826018472,0.01229469126967935,0.006918300901841202,0.04620478049291472,0.127456894172575,0.07285578835539562,0.034509226248041404,0.011430527178304924,0.0036500150864798757
0.023502528552584265,0.012204737449428474,-0.011297791103155803,-0.017496867858122715,0.01704293764369801,-0.0004181373489264174,0.04648213539571708,0.13731773973936762,0.0800228248435819,0.03997945067573582,0.018142476829433554,0.008352997138680932
0.011422121175791009,0.012180184041688764,0.0007580628658977421,-0.011699957776299752,0.00497613180882818,0.006904187372677092,0.04415207914786299,0.14476992556936016,0.0854915079225377,0.042370559918951965,0.018925806190752986,0.013176461755524999
0.0035463003831359913,0.016826650827369352,0.013280350444233355,-0.009648656222864161,-0.005022953260294105,0.014858238548209673,0.03832410450684029,0.1443741184285114,0.08544787398543008,0.042226749198365984,0.021231773136411218,0.012828173812157336
0.003686052393358972,0.014474261930124547,0.010788209536765563,-0.008915246871978554,-0.0037228008824075147,0.011758300373328732,0.03654699088182372,0.1472382740553436,0.08788125457223751,0.04203701619422194,0.02065678270702472,0.010721680075512934
0.0035438542619214575,0.009686078963278118,0.006142224701356648,-0.0070499936645585844,-0.0011909292710311201,0.007779096556165088,0.04083384227695253,0.1521375166037607,0.09378269548782828,0.0444887782790645,0.023186876897523252,0.011228972325510287
0.0131900598553541,0.002128188408541821,-0.011061871446812286,-0.0073407127484248335,0.011427565936499701,-0.004810585884680858,0.04138196772793276,0.15934358529933945,0.10276124977800416,0.049877251002914465,0.028757174049112783,0.01641770515569007
0.03627740632059736,0.009253800101600701,-0.027023606218996667,-0.022304031616159202,0.0317123131816796,-0.008668418270441337,0.04111196686972888,0.164834910553283,0.10849594136819456,0.054790867865917484,0.033129686621050494,0.02406105302153619
0.051394278103682,0.034367054117994074,-0.01702722398568795,-0.04306350656189248,0.034141972310209684,0.00943677344137446,0.04186719866972981,0.17227558720697883,0.11325566992949693,0.05981447635101486,0.04118572005724,0.033544728712765266
0.04893031418588373,0.0450794045606868,-0.003850909625196938,-0.0473011401359877,0.02666646982678036,0.02055090094600326,0.044036064659242494,0.18066360670298726,0.11862951074170369,0.0650771247274344,0.04888385405636187,0.04164524177508153
0.044578138923817553,0.041813336808864565,-0.0027648021149529953,-0.04239268097117628,0.02385885347917227,0.0195613900702203,0.043254134395353895,0.1825712173507883,0.12122096643820482,0.06767726902884402,0.0537416341953366,0.043775586054229036
0.04900751643877768,0.040086334770704356,-0.008921181668073321,-0.04496037101604398,0.02919021370700375,0.015577484074559587,0.03922388065535975,0.18284498200194393,0.1209861863705936,0.06753103710424488,0.056849279710001664,0.043817096810595015
0.05108822904668428,0.042466667304915925,-0.008621561741768374,-0.04714281199002996,0.029433163192025685,0.017541900802271127,0.03900533133768051,0.18970421648011776,0.12836028816390094,0.07466654742922685,0.0631236895961081,0.05098255095045966
0.04092996227789013,0.049574558764263706,0.008644596486373569,-0.04452593411185975,0.016984173448252274,0.029800732908382338,0.043904178914545094,0.20028355812035645,0.13823712717653794,0.08535939914534416,0.07452300941686052,0.0610580936926756
0.03423626999845639,0.05723825612519454,0.023001986126738132,-0.04511281257412781,0.005225207841972307,0.039840420780219,0.04671956131469518,0.20270572335411854,0.1437047189292158,0.09283232006953189,0.08082930329611841,0.06626518811700559
0.03144443604379344,0.05720375063113582,0.025759314587342364,-0.044360205590705006,0.0022057515582972805,0.041357758688407194,0.04585230770420051,0.20493826392396688,0.14856771292657706,0.09754368449100824,0.08419006774955995,0.07185101171080802
0.02801933070153633,0.05709910068903952,0.029079769987503182,-0.041798949448870575,-0.0012124053111154448,0.04257439425372526,0.048954066483289274,0.21046889828584633,0.15393339896608219,0.10284516946491393,0.09375627571264948,0.07979481565317881
0.03206247819208433,0.05987170325184169,0.027809225059757355,-0.04574654443500606,0.0024190683697463133,0.04369658853746449,0.051240835898245685,0.21488506382480918,0.15645660592198551,0.10727013176364257,0.09864795359111181,0.08619507599033367
0.04592258685937431,0.06998470338970496,0.024062116530330614,-0.05765509661568845,0.011695894988019413,0.04741678565685192,0.046235787898449454,0.21536241409450768,0.15612501649681648,0.10791137778306761,0.09922141430853834,0.08654020745093893
0.05457111658537687,0.07957829242336965,0.025007175837992782,-0.06722763832696645,0.015122222362924936,0.0522780975515408,0.04131750782645226,0.2154376912017919,0.1562865737387054,0.1075241179701757,0.09889178114058365,0.08649313370765008
0.056386497183449964,0.0830087769687518,0.02662227978530182,-0.07050984641311583,0.014072793936329174,0.05557390224938855,0.03621363859064991,0.21346520133119293,0.15620608872732022,0.11003107952986718,0.09966842106012579,0.08653404549433702
0.05704743237467677,0.08031687770286212,0.023269445328185347,-0.0685362499242681,0.01731831368145544,0.05199651834505328,0.031145017988454538,0.21262794614551098,0.15619680303376235,0.11515329337702186,0.1021688785723069,0.08644105604599535
0.05891308437320334,0.08032149556777433,0.021408411194571007,-0.07039068934882932,0.01913393166742984,0.05055850934835704,0.02652370665934696,0.2128921394864064,0.15664995474805216,0.11503089447341423,0.10616959676627302,0.08692358593736811
0.051984848883144585,0.08486897428007313,0.03288412539692852,-0.06803547189236588,0.009448332352924572,0.059285256140131956,0.02638843382477048,0.2127421489481715,0.1595742751806499,0.1177109446353225,0.10659337441810068,0.09146841362890597
0.04660255252898597,0.09016867268746266,0.04356612015847668,-0.06792177489959124,0.0015641277681571497,0.06696766041182435,0.03164896221976355,0.21314972783060496,0.16288822959388224,0.12281569703625374,0.10874387087521871,0.09664570490418878
0.04642676073094144,0.09477679688107807,0.04835003615013659,-0.07085033724060069,-0.0009655264897520698,0.07248269427199015,0.04074089598218545,0.21796647544461661,0.16646909180869296,0.12818561361166797,0.11615056247047639,0.10155652401515632
0.04655596903246424,0.10259813532149577,0.056042166289031525,-0.0747182740304126,-0.005393231957903089,0.07948113732967366,0.04659534739421811,0.22069847580732146,0.1690645120207271,0.13020532358349926,0.12202865487680362,0.10683363916564285
0.05338574094452422,0.11002549099620472,0.056639750051680524,-0.082000023765453,-0.001562288642965707,0.08295957360115203,0.04875636038888143,0.21856683257824833,0.1688128739017787,0.1258007664739823,0.12455942574394675,0.10956008086033464
0.057071781076380786,0.10261886702651007,0.04554708595012931,-0.08052105896598596,0.005005803380988509,0.07488223725024826,0.04349967974728127,0.21545014117156033,0.16680647185443265,0.12493698243655334,0.12372772996993696,0.10849223703249095
0.05552898986363805,0.09495118270882127,0.03942219284518324,-0.07527338909189799,0.008471386429262947,0.06747250612453191,0.04112746648977967,0.21054258786302332,0.16075474893537378,0.12078394023744325,0.11975142335586605,0.106512485922452
0.05465066701278152,0.09777766346580921,0.04312699645302771,-0.07589442191929649,0.005487047775183863,0.06975072302538347,0.04127904087527309,0.21042226461776956,0.15888079729900495,0.12033271182014511,0.11913251643285828,0.10680761283571401
0.06401645240073991,0.10748491488864437,0.04346846248790446,-0.08523619032542629,0.009778539896773401,0.07490434256254375,0.041381737999119886,0.20844263476465474,0.15645190693966535,0.11999394925668376,0.11930358352677979,0.10649931914371281
0.07215292213303147,0.11049161830494687,0.03833869617191537,-0.09161014300585571,0.01779997406514723,0.07435888041674243,0.04068479930628636,0.20721670083156457,0.15113298117386545,0.11528952457429223,0.11888370430913524,0.10698256041864836
0.07341293342939036,0.10974987109157565,0.036336937662185285,-0.09168296555098102,0.018718609573776003,0.07249987992167328,0.03857865622133635,0.20284350735423173,0.14606769187254215,0.1106891186110452,0.11415101485918351,0.10423952697128572
0.0659329371567348,0.1035247608854784,0.0375918237287436,-0.08508481530420918,0.013777000160240435,0.0704225981995891,0.038498135902146506,0.19765616299366504,0.14166984303759514,0.10985747896711445,0.1093282976964153,0.10081442086515104
0.0646551190721445,0.09704342130231612,0.032388302230171605,-0.08062489726273668,0.016328880014901175,0.06450548015469625,0.03390629344691775,0.19259576331483827,0.13878208172031167,0.1052019311632052,0.103751635517282,0.0972956281556222
0.06620692846498952,0.09547327354388324,0.029266345078893728,-0.08006487033916224,0.01870021504383095,0.06273214694127724,0.034375469167180144,0.18804819557259594,0.13374045532299525,0.10064295157751936,0.10164962630632605,0.09468718708311792
0.06208173761670284,0.09774045450892836,0.035658716892225516,-0.07998418181460071,0.012776531584655127,0.06681904210441873,0.03593622929123635,0.1871662686002771,0.1337517894555082,0.09969164084451115,0.09931012924459791,0.09339028160215315
0.05911531217841229,0.08985838840154245,0.03074307622313012,-0.0744247439260569,0.015054932110534658,0.0605921991330431,0.03156500918503003,0.18232087570410282,0.13127340194517792,0.09529641389817073,0.09402164678677145,0.0910677756153976
0.056160935953163266,0.08456998369292729,0.028409047739764035,-0.06976798681757988,0.014051945203327273,0.05662618581843864,0.031113128363032965,0.17228483920126447,0.12575863712341054,0.08985154869647548,0.08873127788680653,0.08647526212937044
0.06388150195950393,0.09237030732517335,0.02848880536566939,-0.07745428004837598,0.017341686384567064,0.060107065350926615,0.031557395968697007,0.16498999863923436,0.12309542878683877,0.08768071642110468,0.08677253188139414,0.08358452760846614
0.06664509487153758,0.09527829440446504,0.02863319953292744,-0.08036039278046782,0.01973232235289751,0.06265294210618869,0.03623269217554214,0.16514584037783664,0.1254881321007922,0.0925493124259252,0.0890412600107542,0.0843563511367183
0.06683295942680754,0.09509429844704438,0.028261339020236812,-0.08026593356968821,0.01988464859301816,0.062325213508076044,0.04087588792484047,0.16428814869312713,0.12572721107871995,0.09025380388741795,0.08360828075841477,0.0816440244883201
0.06365403168633688,0.09303509437325475,0.029381062686917862,-0.07797544061287774,0.017141009788596447,0.0609664847645775,0.04135950504681942,0.1603267241852504,0.12061383490498127,0.08514743080860232,0.07940823512089147,0.07598267760095952
0.05624172494615438,0.08512246458995447,0.0288807396438001,-0.07085034372870443,0.014343752577163147,0.05682190467354521,0.04083365042519334,0.15224598188953356,0.1107673488217367,0.07942320293759071,0.07113787742921643,0.06669220884918109
0.051090370441046695,0.07474940029183097,0.023659029850784274,-0.06254076471867683,0.014281916899726719,0.04957194950777122,0.03819143460493629,0.1445353966066758,0.10292149665898562,0.07231279218316765,0.06409246254105355,0.061802607697137114
0.0433147293140886,0.06694846460969164,0.02363373529560302,-0.054460168568891534,0.009981139151064255,0.04537381684799691,0.041465970203606976,0.13812923665208018,0.09892623953575322,0.0674015693292112,0.06161739816443507,0.0590337038101021
0.041676033499407836,0.06308427228220913,0.021408238782801278,-0.05234667047044527,0.009711253563254765,0.04262949619238001,0.043847689808666525,0.1316214485197847,0.0975575605499993,0.06440225453726399,0.056247790616643346,0.05385272690419702
0.044543811519692146,0.0594899768028215,0.014946165283129352,-0.0522594169579033,0.015097382490554586,0.03636926731728519,0.04594725153289,0.1296577068359161,0.09554650782917934,0.06733134763725286,0.058559137166027474,0.054434084838583675
0.038775803221981923,0.04995361401841904,0.011177810796437102,-0.04517605502907607,0.014275614012046106,0.03041250820022628,0.05160615181231272,0.12922976850454582,0.0960339702965092,0.07229377378486179,0.06365501800820414,0.05605946999706593
0.023826376674203443,0.04681200986186247,0.02298563318765902,-0.034930065220150346,-0.0004237712355113945,0.034571398799411554,0.0542904916731376,0.12439868341115963,0.09307181649954074,0.06995787277886734,0.06123210711804866,0.050808946210690105
0.01604905568058522,0.04718255372420678,0.031133498043621557,-0.031585483580216074,-0.007799932293761829,0.039359251627881585,0.051737782042214554,0.11427396695307009,0.08331735876890405,0.05953591311114499,0.05128411584661629,0.041540276810297934
0.018545169298829683,0.03971218921723374,0.021167019918404043,-0.029081409380241157,-0.0005825103962573937,0.03059045923007761,0.05161601524657429,0.10687323744802094,0.08001680202113402,0.0522189098676263,0.04660018122391347,0.0361716836812442
0.02174672890433778,0.029936334722130524,0.008189605817792728,-0.02547319242981528,0.007117944893765815,0.019612655052930035,0.04878615085669221,0.09985379522620041,0.07565988799136684,0.04685908748593667,0.03837268005973269,0.030510803506725054
0.01862854184826284,0.024331398044781304,0.005702856196518458,-0.02226091754736718,0.006340828804202091,0.015091125095541983,0.04619352881168629,0.08892682567949328,0.07065898054950241,0.03763355897876871,0.03109189904821889,0.022918849455215596
0.014119514748088013,0.01974498462068793,0.005625469872599904,-0.017221202405868753,0.004362714952521343,0.012445469941264836,0.0441444202325414,0.08130158286930846,0.06330574272133309,0.0320348113262979,0.023539935787512206,0.013862932611883056
0.011491773510707109,0.011936309749222834,0.00044453623851571373,-0.011604728480605305,0.004741827121518224,0.005949465312467273,0.03895080066888911,0.07160484406014797,0.05263421861773524,0.02720231887588759,0.01565467375331102,0.008458459143916061
0.0038626032729967737,0.004223762199747881,0.00036115892675109946,-0.004140033662913552,0.002172566413486859,0.0021819931208372253,0.03878589485829189,0.06373689879206543,0.045001205413825865,0.021916818099300628,0.0091475006370019,0.0013995256067449295
0.0027832254976574962,0.005083504394653979,0.0023002788969964747,-0.0037665756649780764,0.0006283283789035747,0.003291767106376875,0.03875290202057372,0.059373527923384836,0.04225085942105625,0.017244279939451823,0.003421047503554018,-0.0026500279364217966
0.01717256077884742,0.006938735225794381,-0.01023382555305305,-0.012486090963995894,0.012967417908177821,-0.001315065459726611,0.03866235366355002,0.05360453147127925,0.038213892171276076,0.011549339484940267,0.0030529303692811856,-0.005976113585347585
0.029157679998842622,0.006846034389462658,-0.022311645609379968,-0.01770914586998364,0.02513811606774984,-0.007984251670488973,0.0389851893916038,0.0515660649623477,0.03755550306687611,0.009621613644284077,-0.0018322251477658274,-0.007409576422676073
0.025932732160381795,0.006530204545637843,-0.019402527614743963,-0.01617936639282758,0.022238323246869522,-0.006279758135428511,0.03638162912413037,0.049279484099323784,0.030376403034954206,0.006643479780115787,-0.006650169892621607,-0.01153459290468195
