0.04265599011524819,0.007720150468344428,-0.03493583964690376,-0.02477065307699299,0.03837328828244946,-0.014112928863444623,0.03236032783572436,0.0645158817149381,0.03866388864272223,0.04217734197434651,0.012762820347159445,-0.014423376815681895
0.015651127559649054,0.0005416107659212857,-0.015109516793727773,-0.007316578108937392,0.014609557636271838,-0.007915728593133258,0.05938841160232813,0.10047616900055321,0.06654041314429911,0.07307565629664181,0.03062257641603849,-0.012240334043996461
-0.0328009469226385,-0.004061863594449287,0.028739083328189207,0.018067028928301074,-0.031028062669394396,0.0122664884261997,0.07980743497443299,0.10157481837507204,0.07238735382771826,0.08211975340361209,0.046669868941523605,0.007299127401474946
-0.026577583611970868,-0.0046392621299193885,0.021938321482051475,0.015588684664744546,-0.024425849473669728,0.008323785173081008,0.07915155239387445,0.10770188385273677,0.07364176842033718,0.08495366367318472,0.047711481692139,0.004107463349361644
-0.009959573016941085,-0.00863251552990462,0.001327057487036459,0.009242387272064329,-0.006534706523666223,-0.0035777442130680154,0.06571210631452591,0.09647308451344569,0.06344537417083564,0.07555485199529374,0.035422218614780024,-0.0056808521538927945
-0.016727763727996295,0.008140121032164388,0.024867884760160677,0.003987199489417942,-0.020312658582445076,0.016468308457076208,0.06640300729868154,0.09836692075985431,0.06660159978740206,0.0785822461600406,0.035164096872574366,-0.005394081323058898
-0.012195893644570691,0.0025725000867468256,0.014768393731317516,0.005319823350475234,-0.01315997464986545,0.009295420198317044,0.0639304666351911,0.09838169682160638,0.0682506894171116,0.07409450476629927,0.030151215550182547,-0.005694248174103721
-0.011801471723960923,-0.006100803661330917,0.005700668062630003,0.008024663318079888,-0.00879591110598822,-0.00016192305777414095,0.07118330670629962,0.10633819275297922,0.07893311871070309,0.08316719678230322,0.0345967880653905,-0.0032348881752684256
0.017694747474506896,0.007777259292637669,-0.009917488181869232,-0.012200987430151137,0.013752604325894301,-0.0007122893277380553,0.0889384815409925,0.11373590428309743,0.088185161917161,0.0937713420825905,0.045442710361055016,0.007422985227313982
0.01912606683242823,-0.00768218277313405,-0.02680824960556229,-0.005470945888162245,0.023281974581389368,-0.017414805555362466,0.07418964803349208,0.1134084729976248,0.08124272667090374,0.08787733324174944,0.037184768592979735,-0.0033583710712861018
0.009949163998225088,-0.03660100310226055,-0.046550167100485644,0.013575846162711978,0.028930572297227883,-0.04123664012815843,0.04364862666032557,0.07831595708968013,0.05099955704086421,0.05744491849365437,0.01055253356750385,-0.027619667906898692
0.05333003347757114,-0.00773682471267318,-0.0610668581902443,-0.022074532290440107,0.057872434265766395,-0.033677235353430285,0.062009490042657364,0.0908721887065186,0.060369455051589464,0.07509134537460002,0.019689425090321407,-0.016762514975393387
0.01512095263902562,-0.0018027120284247757,-0.0169236646674504,-0.006011583787026245,0.016328390963402065,-0.009013733521802835,0.08689500555586475,0.1290982006805043,0.0935190646587106,0.10859984242665674,0.042319879316194325,-0.0007619859078535141
0.0024069488083988924,-0.019246941651295393,-0.02165389045969428,0.008761315787151327,0.011541325267923182,-0.021274450475724564,0.09690083116271195,0.1399981907543348,0.10512465789721974,0.10753152458821662,0.04321070947512137,0.0013986989910894005
0.062113555967064346,0.013880569546611805,-0.048232986420452546,-0.03851885144238425,0.05543666544160819,-0.016761517710310002,0.09687010032654172,0.15158712089634405,0.10933352164058971,0.1031839949830634,0.03551063902068543,-0.0009348935765275247
0.07005134923214903,0.017782354167734594,-0.05226899506441442,-0.04297019518955952,0.0606870956276457,-0.017478035569377808,0.11140113491426136,0.17113874989619246,0.12375941141432194,0.10798528171193665,0.02783301010975911,-0.01064803756631783
0.05115131260967642,0.011315182772837735,-0.03983612983683867,-0.031143039386754126,0.0457638280387452,-0.014432371424960533,0.13535576595889293,0.1990312623955775,0.14414604537202289,0.11359118195430237,0.020465376931548932,-0.02413482593540302
0.0433926994562443,0.041747332222842014,-0.001645367233402295,-0.042171384334233314,0.022641884175901416,0.01973998391777164,0.18442086760019952,0.27700211749137843,0.217240710974259,0.17823273598496295,0.06700294064641751,0.011610697126443205
0.06587759814757473,0.05091337731269688,-0.014964220834877822,-0.05804223272302974,0.04014643018243828,0.018115258572504952,0.21312680494501018,0.3967648211265611,0.3256748489256806,0.27804026216535405,0.1299212946744902,0.05311915857707895
0.12249405408325928,0.05286551590700272,-0.06962853817625655,-0.088167177644163,0.09584557095693293,-0.008762963081225424,0.2169559231394243,0.5262810933810413,0.42407178522110484,0.3775272718365423,0.17300842332414657,0.07994932028144028
0.25863514253205594,0.1141675996204572,-0.14446754291159875,-0.18615771000316292,0.20202984564920726,-0.015609058572542595,0.25174277632615,0.6997405678492986,0.5653389556423752,0.5293205991738755,0.25681926870180055,0.14860366207416173
0.4197033368286811,0.1991325800810601,-0.2205707567476211,-0.30981690612283347,0.3204155531308978,-0.010483928048077773,0.2832446933640652,0.8944433095988,0.7410558254599747,0.7366273597551983,0.38959078727261953,0.25815027198634233
0.5329412559715075,0.2344584583326078,-0.29848279763889984,-0.38374628733549265,0.4159429437257247,-0.0318399805515495,0.25114997481774975,0.9963167912166276,0.8588270983994106,0.9129991903133685,0.5094860238562442,0.36094245066205044
0.6382765263775293,0.28246334594079187,-0.35581318043673726,-0.4601420756358083,0.4971338923307202,-0.037057494835278246,0.1750467374651199,0.9763159745488377,0.8843439254671431,1.025364132948576,0.6095219422461571,0.46281322868959124
0.7666456977538904,0.37170776824075674,-0.39493792951313333,-0.5689241271200164,0.5814471345437762,-0.011488411606795809,0.10460446715978539,0.9109557819331571,0.8811477691032482,1.123731909846512,0.7216926677873624,0.5852700042494147
0.8616346600247816,0.4765843782779654,-0.3850502817468162,-0.6689812069671259,0.623652393104816,0.04628874983280256,0.04867142353366495,0.854537552131039,0.8859731471091146,1.2225765468634082,0.8535703490026386,0.7263760668166956
0.9645601451267685,0.5710048673393912,-0.3935552777873768,-0.7674061158671258,0.6785776744689769,0.08884665083497768,-0.03136943537165491,0.777842536253395,0.8564556162856828,1.2925086602642093,0.9678147266202866,0.846649184891026
1.0476532625268464,0.6155491700028165,-0.43210409252403,-0.8318706581287646,0.7401171296371024,0.09199636203387807,-0.14139127067739082,0.6556071785276572,0.7613617670775557,1.2854241998763363,1.0183958287855244,0.9020939488026861
1.0649430465853758,0.6331277294737806,-0.4318153171115953,-0.8495128029612815,0.7485967174582631,0.09997275645105068,-0.257782033909398,0.4347577234462766,0.5689755898554798,1.1510737732649354,0.9841392446920194,0.897938943970067
1.0154424029946354,0.6158923584961303,-0.39955004449850556,-0.8148372194422082,0.7068558355919171,0.10753556298208757,-0.36326911514656934,0.16532081525897077,0.3251361073021166,0.9348471961024404,0.9070581206994942,0.8770374448546046
0.9472817769282036,0.6462628521304817,-0.30101892479772246,-0.7969138354242497,0.6234907598524535,0.1726516657059516,-0.4505057578593167,-0.08944040270395891,0.09622021450820055,0.702934512926463,0.8221691178069913,0.8415594928779472
0.8044767346933014,0.7083469945247939,-0.0961297401685074,-0.7556254538718081,0.45036157248138536,0.3060114814772184,-0.4863073842816323,-0.2910283820812781,-0.09546809568690659,0.4569465619919118,0.7204609700322316,0.7756763992205802
0.5947347727686779,0.7035584624657747,0.10882368969709677,-0.6495114816734047,0.24220758843523438,0.406542812866139,-0.4829208826069215,-0.4757547735043289,-0.28965462059880404,0.16204711978860256,0.5639932403524777,0.6674323492275335
0.34854485609907415,0.6408680742988107,0.29232321819973656,-0.49536878200716505,0.02848086030403043,0.46641655795143105,-0.46230148820591976,-0.6416745939400077,-0.47076349407839524,-0.1309957194259856,0.4055785186147306,0.5516921029589003
0.12309429746901895,0.5872429240482032,0.4641486265791844,-0.3551919090555984,-0.1705370917193399,0.5248327186152204,-0.452625242652943,-0.7580788893247936,-0.6018477949451863,-0.3513380945703027,0.2941672588231731,0.46770890732903675
0.0014799994024952468,0.5388188781485376,0.5373388787460422,-0.2698977537118243,-0.26780946710407066,0.5378633676247339,-0.4806683695439713,-0.8358238916412104,-0.6953256382628651,-0.49910228581079985,0.20416782854924762,0.3839052867649771
-0.013627176392903822,0.5046599097135686,0.5182870861064724,-0.24469507084887215,-0.2663924703502498,0.5112749358430749,-0.5105201315930473,-0.8570540519956448,-0.7411876039258337,-0.5779502076470571,0.13268213778717766,0.3034654290639455
0.03067655998337439,0.49466699519575424,0.4639904352123799,-0.26241758662434933,-0.21695749527100563,0.47844619467918337,-0.513644388745426,-0.7998557306024715,-0.7252932874000553,-0.6003415897853581,0.08061843355856242,0.233679911563444
0.017619280091381997,0.4430530503733007,0.4254337702819187,-0.2309963029732264,-0.20352448028093226,0.4340915595396146,-0.47517769189934533,-0.6944339528737582,-0.6573278735583966,-0.5780899883935918,0.053158567809847866,0.18375903601565913
-0.018017610218399156,0.37917985243978114,0.39719746265818034,-0.1805855654502614,-0.20747395714738345,0.3885001319001172,-0.41460344958142514,-0.575990530606718,-0.5746629258184959,-0.5322199099756201,0.029226847237864124,0.13708942811693436
-0.04116267781294205,0.2904661236490316,0.33162880146197377,-0.12461292184497348,-0.18619297587329892,0.3103850403127557,-0.3802849065541906,-0.4958753497251877,-0.5143953278174106,-0.5143052856358317,-0.012038773553220191,0.06761910411169737
-0.09949974655861478,0.21743614156666824,0.316935888125283,-0.05905103727309992,-0.20773394255191185,0.26709539093876383,-0.3385045958543141,-0.430915327713597,-0.46389173877925144,-0.4871004277451007,-0.032841600047767754,0.024733160862558473
-0.1020820036429404,0.22263133598180945,0.32471333962475,-0.06057469907027558,-0.21261649231235188,0.27342433961841567,-0.2540826729953674,-0.34618338445553754,-0.388080604931036,-0.4180587681607845,-0.005159209961069253,0.041588972302885135
-0.031793202258555746,0.2855701467245123,0.317363348983068,-0.1261962146131608,-0.1749594477643629,0.3012023461902699,-0.18984955935007608,-0.2512796580846932,-0.301036560490957,-0.34285219447449233,0.015425290665831554,0.058037316006719304
-0.022515237044572662,0.2584198293498138,0.2809350663943863,-0.11794929614237123,-0.15156265217587356,0.2691580497108594,-0.1605941505485216,-0.19365678227024957,-0.2488460400496357,-0.30177258070637303,0.012273025546495089,0.041497874904754956
-0.05787873421341492,0.1803201885208696,0.23819892273428445,-0.06126244824502135,-0.1477659487450479,0.21015453365930112,-0.14203318703862375,-0.1604219686818861,-0.22125031021155545,-0.27940187366968144,-0.00206679886473912,0.01049564399900427
-0.10666736268625292,0.10269108567340764,0.20935844835966055,0.002103796515520432,-0.15852932520497554,0.15620608223783483,-0.12826996476503372,-0.14275616466680882,-0.2105416093473796,-0.26913660951313195,-0.02850082425231453,-0.021198948674367352
-0.08442576690032234,0.09081336243709544,0.17523912933741778,-0.0029525933452440685,-0.13009028812255305,0.13242178818439435,-0.10451691362766861,-0.12016499487907531,-0.18605720459429853,-0.2498177326434958,-0.03776583524449806,-0.0365738964209476
-0.06834976479976715,0.09686666153427367,0.16521642633404077,-0.014024853967577704,-0.11704406940050989,0.13030923209950396,-0.06090411529982906,-0.07252696136414184,-0.1389339639473592,-0.20446339061860114,-0.02295993439049046,-0.02797033133672602
-0.06729555884189772,0.08547361658510864,0.15276917542700635,-0.008966756341202895,-0.11054627174567132,0.11945717968108888,-0.04521720294056014,-0.05617081307055862,-0.1215479657597372,-0.1849700558093503,-0.03830447064487248,-0.04654775403014888
-0.09665929460950061,0.02103053792132012,0.11768983253082076,0.03778150381009244,-0.10690234918071224,0.07002402326087646,-0.05643414394602206,-0.05914296327986338,-0.12425212535647676,-0.19297760797380767,-0.07592993224649441,-0.09348262607452364
-0.10107504705172103,-0.045081201077637155,0.055993845974083904,0.07288735733643352,-0.07900305600927118,0.006129188178265353,-0.04604994980138336,-0.058354978933495505,-0.12581508564715252,-0.19698204157776134,-0.10045178584111451,-0.11832194440684486
-0.12628406883476098,-0.06570579513138736,0.06057827370337362,0.09574692481040466,-0.09381415018995629,-0.0028883208646264926,-0.001772675868281984,-0.027357761441216436,-0.10024362785791407,-0.16938073785969748,-0.09350125903023525,-0.1141079391301884
-0.15560026147051198,-0.07874149020297316,0.07685877126753883,0.11702624605583034,-0.11605825537839895,-0.0008150570985786683,0.028544881122149316,-0.00971509352815624,-0.07995138730471349,-0.14797398764151004,-0.08347997892603255,-0.10829423674185426
-0.1315215725895934,-0.07694536737042297,0.05457620521917033,0.10454350515522465,-0.0934096533723242,-0.010907321896727096,0.02409554830153594,-0.012208579494107058,-0.08147405470854506,-0.15071641434557634,-0.09782352711678603,-0.1206885919253491
-0.168399281420761,-0.13318152365053176,0.03521775777022917,0.1509582886000977,-0.10251154892476147,-0.04949037630224983,0.0050934254405843645,-0.027744475645169308,-0.09791942132188641,-0.16879039207893154,-0.12709487647847273,-0.15220925903955396
-0.21152050672452297,-0.19321006005495087,0.01831044666957204,0.20322647928745716,-0.11531713152695675,-0.08774935866594116,-0.013110962272089898,-0.06298460664761006,-0.12245207158235372,-0.1933838189775702,-0.15531178511715538,-0.1808518818648731
-0.20131453917604142,-0.18887233271559237,0.012442206460449063,0.19467952733139737,-0.10661966390397888,-0.08776463905773961,-0.014088868943207279,-0.07809656694252193,-0.13366016167007522,-0.19684094077863518,-0.1647576030792097,-0.18505846764321224
-0.16751149737260645,-0.1471540560679484,0.020357441304658053,0.1575194606436563,-0.09446678434963117,-0.06425139645457642,0.0006352726822635474,-0.06862595012455858,-0.12610588789213945,-0.18550335264362552,-0.15633974871106443,-0.17478561429710288
-0.1296519178368067,-0.1369771242261701,-0.007325206389363365,0.1342141196886363,-0.06074443979609483,-0.07176767679242459,0.003005925588908143,-0.05966391172036384,-0.11406449916163265,-0.17611479880953348,-0.15460349889029013,-0.1768813014121787
-0.12089384769065088,-0.16018238258981907,-0.039288534899168184,0.14065024249040123,-0.04115131476128697,-0.09970081854949502,-0.003978023642556002,-0.06870235566375156,-0.11917438042544783,-0.18195398819369415,-0.16648065673135917,-0.18673991182401395
-0.11880165426930438,-0.15572133757239456,-0.0369196833030902,0.13766079276551263,-0.04128962473668314,-0.09634450722040408,0.010681431492510635,-0.0662487817539321,-0.1094602097836125,-0.16836384957739853,-0.15623822900278025,-0.17899479808330948
-0.11191925958042408,-0.17069244901621536,-0.05877318943579128,0.14100380737793308,-0.02678246491645109,-0.11409219586254374,0.0066036107147684235,-0.07648964509060552,-0.1136229075178023,-0.1717916004941701,-0.16888836111878244,-0.19125285214291185
-0.14759703835291013,-0.1777310925629304,-0.030134054210020255,0.16286348341209586,-0.058637640378019946,-0.10332655519956926,0.005451653432552752,-0.0908686421285763,-0.12741948782976112,-0.18425090612845058,-0.18147429659673822,-0.1953316964561099
-0.13618656529055095,-0.15086133398918378,-0.014674768698632804,0.1436552689774755,-0.06050261239865928,-0.08211596810543575,0.024423988482250216,-0.07493464285926145,-0.1146079423914608,-0.1680280705883893,-0.16159456467362343,-0.17631119788655594
-0.13328602545123047,-0.1543589726561978,-0.02107294720496737,0.1444143929039176,-0.055694446013198486,-0.08713289370245524,0.02811842193313025,-0.06296332933956526,-0.1027905612192232,-0.15815176498769926,-0.1543737802333665,-0.17004167020676322
-0.18170924257747387,-0.1963648188275297,-0.014655576250055844,0.18901767838740252,-0.08263970344477331,-0.10543677485338004,0.010915338692930432,-0.08474760228056503,-0.11792567560090003,-0.1728312880839174,-0.17587835562788645,-0.1858262630941545
-0.1504085744833217,-0.1898762842980015,-0.03946770981467975,0.17088226421395114,-0.05538420060705585,-0.11435067944940634,0.004013371388184695,-0.10426652993431278,-0.13183914742321823,-0.18152624951189986,-0.18498719221106205,-0.19531253157980782
-0.12795860440664672,-0.14477729364584235,-0.016818689239195585,0.13659749437702756,-0.05576660271479375,-0.08153917586730905,0.018530345649588595,-0.09252311306055239,-0.12016012489423289,-0.16850977569678752,-0.16603922673995924,-0.17957249037845607
-0.17307641438809734,-0.1484484423788046,0.024627972009292745,0.16104430722749732,-0.09859196044961267,-0.06183189739474986,0.03151323729361835,-0.06815731144774928,-0.09529570621240138,-0.143122745080906,-0.15111686841857344,-0.16390404603327693
-0.23147714406527364,-0.19309860501008363,0.03837853905519004,0.2127759174576259,-0.13460987903142702,-0.07747299926731417,0.016295586593591403,-0.08245909939619048,-0.11080272730197877,-0.15397089762877797,-0.17148980645702963,-0.1844804703665501
-0.21656895571751877,-0.20112070320389808,0.01544825251362072,0.2086212824849403,-0.11628203835401801,-0.09314454456318794,0.005528292594312432,-0.10325653425802488,-0.13101748958957585,-0.17123630330430972,-0.18452046279032924,-0.19214495203173182
-0.17889359959977813,-0.19752542104360435,-0.018631821443826215,0.18796219190296848,-0.07991572337659168,-0.10798790149860739,0.00879292324641162,-0.10598765262056739,-0.1302258380948485,-0.1729877352121081,-0.1834740750665964,-0.1890419154250483
-0.15865041923388074,-0.1870484554854272,-0.028398036251546445,0.17291937292439316,-0.065248533401039,-0.10735380371037119,0.010698772366433866,-0.10845416075866908,-0.13448800058118004,-0.17732316263327083,-0.18483727416222642,-0.18962129432945182
-0.1121629160821128,-0.12701266710742384,-0.014849751025311027,0.12015012953571058,-0.048874809500708945,-0.07116529427921071,0.008399226573469896,-0.09929418338272547,-0.12440309439127759,-0.16329973654760166,-0.17677177144723516,-0.18141034183956165
-0.14008764051252717,-0.0879120592783872,0.05217558123414,0.11412107715021423,-0.0958005071144852,-0.01801276176889731,0.016088849115850387,-0.0765538734208406,-0.0983706604216051,-0.14131227112611633,-0.1559556487708169,-0.16210111728990717
-0.17126997516951584,-0.09733443568263056,0.0739355394868853,0.13456883849714682,-0.12179395776949141,-0.011438606772999209,0.023421413648625076,-0.06929635351539983,-0.09268897412700522,-0.1339469672861319,-0.14847809322804975,-0.15737034584558976
-0.10561970325234489,-0.13840479515707688,-0.03278509190473197,0.12138219087865779,-0.036248441967547514,-0.08596587074470587,0.016928075001958948,-0.08051892834256501,-0.10486650424289085,-0.145612408546694,-0.1611240999096308,-0.1707907002032256
-0.06557149894140761,-0.11772430832256839,-0.05215280938116077,0.09154942083338813,-0.006365381773476741,-0.08445524098017049,0.02766970455680741,-0.08260505763408195,-0.10361093738500038,-0.14354323855727935,-0.15954412588656075,-0.16265563816575315
-0.10207029238850647,-0.09011306502014811,0.011957227368358383,0.09586411903333529,-0.05726722811140085,-0.03928881905018356,0.047340086539032,-0.06277623833677762,-0.08521550368526369,-0.1254625518050414,-0.1503161583735284,-0.15380078748413697
-0.17107173360207154,-0.13270853010745684,0.03836320349461465,0.15226794548323988,-0.10459001379459605,-0.047019727376916086,0.0503873159510315,-0.05841210324594117,-0.08217030728694369,-0.1265164654947354,-0.1493379494223451,-0.15688553722264986
-0.16893499190859743,-0.1433713295205012,0.025563662388096233,0.15608308654657307,-0.0963788302642233,-0.059084249876906685,0.04379885781620383,-0.07235146993529769,-0.09298106978277486,-0.13852031907622073,-0.15310698940878884,-0.16121038029391255
-0.14859364910990064,-0.14731124742931279,0.0012824016805878526,0.1472850173967471,-0.07470486586790961,-0.07323241908492643,0.0404645663132731,-0.07549925269246957,-0.0947295297383258,-0.1410088659844311,-0.15440816495854495,-0.16214373516080166
-0.15964856062796323,-0.16507669215504275,-0.005428131527079565,0.16268332846554032,-0.07778689759297033,-0.08548287067099888,0.04648336951658192,-0.07345781932492393,-0.0904825873255837,-0.14070162944444792,-0.15807281192557224,-0.16083311529323147
-0.1556599388009782,-0.1613019462296578,-0.005642007428679653,0.15914929738084774,-0.07560202728885287,-0.08426677313509866,0.05059386291402338,-0.06762914789269239,-0.08710253958453387,-0.1368053660322784,-0.162124234101661,-0.16245841552164708
-0.17085562154194414,-0.1839420799321611,-0.013086458390216951,0.17747916016158244,-0.07958506941863293,-0.09838411207355467,0.03161395247716576,-0.08521072261572608,-0.10493855799724934,-0.15389479662882094,-0.18136628123350146,-0.18297886929605706
-0.1736091486465814,-0.21194598958303798,-0.03833684093645654,0.19239847544511238,-0.06797744455390169,-0.12531867027226812,0.031141655786024344,-0.09058283112743314,-0.11253431530978622,-0.16043202457329062,-0.18623400701453788,-0.18739099663233463
-0.19494405588499122,-0.2214122784458005,-0.026468222560809294,0.20843613678637202,-0.084114136568821,-0.12414296020131925,0.03376168887090384,-0.08545081685085958,-0.1076325615764712,-0.15631308418745227,-0.18408130664658062,-0.1854315643970217
-0.20821812649615298,-0.21036702815445477,-0.0021489016583018344,0.2091838676163059,-0.10314844863621751,-0.10589242155227811,0.03558818569622936,-0.08701952981097347,-0.11078776437337438,-0.15672393302739823,-0.181577830414008,-0.18168798690777097
-0.2090524271673668,-0.20228176623445332,0.006770660932913461,0.20539501192875487,-0.10775584808190848,-0.09848768692600735,0.03897869030840719,-0.07378661782388533,-0.10091955438629346,-0.15035102659970304,-0.17661165404088564,-0.17732790130735696
-0.1943775123826973,-0.1780622302963925,0.016315282086304787,0.1866762242682864,-0.10514063963506634,-0.0808636562355098,0.06393721139156686,-0.05740906630989194,-0.08247780707297919,-0.13351435620264948,-0.1617414432583908,-0.16198823713583504
-0.1371315003460433,-0.13682659042263653,0.00030490992340673976,0.13693355312586922,-0.06846261236911,-0.0686780522258445,0.07174834034000972,-0.04739735242874439,-0.07543203512478815,-0.1265226721920089,-0.16132972713754035,-0.16171167556366597
-0.12161162819513459,-0.14172857535719083,-0.02011694716205625,0.13243270771316143,-0.05065269564633803,-0.08071148051469924,0.06147811560143724,-0.06132092635289387,-0.08791408770643912,-0.14325635985252447,-0.1820886705494705,-0.17732515575151322
-0.12883356118269101,-0.12931784636582638,-0.00048428518313539334,0.12930101286842116,-0.06420264935926913,-0.06533184849365858,0.06991767097101992,-0.06152448987418485,-0.08485627931334909,-0.1409291029851601,-0.1763709278834202,-0.17511560568685786
-0.14997786623728765,-0.1389015604169263,0.011076305820361305,0.1440599437472341,-0.07991947899809486,-0.06433579005130037,0.06395175230355912,-0.07058125894493145,-0.09060251191539788,-0.14403870678777297,-0.1838760445824373,-0.1850091776918588
-0.17938497317240623,-0.1600188954345429,0.01936607773786335,0.17043230497231304,-0.09928490863434825,-0.07012248582742893,0.06373278739022664,-0.07837263782281688,-0.10232026372874424,-0.15087114975024962,-0.19414316807635074,-0.19151464229031231
-0.19788864725454083,-0.1690911386896323,0.028797508564908605,0.1841183793319798,-0.11308314278245712,-0.0699267405646563,0.07701998292780604,-0.07003231305746498,-0.09850129276006567,-0.1470083006212854,-0.18607746981448628,-0.19164623519815888
-0.19987678320888289,-0.17655470829557465,0.023322074913308243,0.18797462450756539,-0.11139916304275274,-0.07724434037140508,0.10322042970353255,-0.04523444314467962,-0.0699074572750121,-0.12340482764893322,-0.16476040434227032,-0.17230287259830412
-0.17529709844341737,-0.18169658505042954,-0.006399486607012212,0.17834642103092202,-0.0842719092981701,-0.09476756295030765,0.11482959424120368,-0.021799639803247374,-0.05165252854070432,-0.10758692202510982,-0.16067263823289527,-0.16635690152148613
-0.19173027593953115,-0.22479739777291496,-0.03306712183338379,0.20776343326640465,-0.07965564758487931,-0.1286019841206853,0.11400650515487831,-0.02036552838236037,-0.05782999862458961,-0.11404927129610647,-0.17150721871517213,-0.1805859565394794
-0.19657688033660753,-0.22649086509360633,-0.02991398475699883,0.21137968835327414,-0.0841217974058719,-0.128166534632288,0.11267883518779422,-0.018987489440088053,-0.05683532107274656,-0.11717737267620847,-0.17787514927818032,-0.18626081332614267
-0.2004870853709149,-0.20479934962912472,-0.004312264258209852,0.2024271177040407,-0.0983320818617316,-0.10388474799096321,0.10639819357224124,-0.016999289689036773,-0.05796110360515171,-0.11906522405458612,-0.18423915290550133,-0.18720729116127244
-0.16916856150060552,-0.1667807379189254,0.00238782358168009,0.1677519262232049,-0.08579495663806065,-0.08187212009728782,0.1190790600155504,-0.004384473106682293,-0.04698191936449291,-0.10579260898272184,-0.17414055430853637,-0.17929094594414002
-0.10036923674134078,-0.12405370352931891,-0.023684466787978184,0.11141771011251836,-0.03822057594884863,-0.07395144017182252,0.12773619021997693,0.012517279166064375,-0.03003276603270005,-0.09037380836817613,-0.1689770187950867,-0.17378401048683076
-0.07536832666693123,-0.12940914149807178,-0.054040814831140566,0.10208344118120109,-0.010466263110458614,-0.09236179877246738,0.11890872233374868,0.013445224911566656,-0.029533139950647238,-0.09552388580896985,-0.18161763005176565,-0.18511325489401448
-0.10278785835150343,-0.18611421542987008,-0.08332635707836665,0.1446057833683042,-0.009411981860254997,-0.13511817956634398,0.10692114736956222,0.0020635931625913205,-0.045211808831686476,-0.1089043168382332,-0.20107128872665753,-0.20504590349192295
-0.164783241900971,-0.21805112118785902,-0.05326787928688803,0.1910328278742584,-0.05596704240949973,-0.13484547832979762,0.1215876819978207,0.013510674681277555,-0.033697975830707445,-0.09771256682988116,-0.19174182326781386,-0.1942483384034614
-0.1926284227099033,-0.19210321296049127,0.0005252097494119855,0.19193256985167645,-0.09668868303171764,-0.09616676164996198,0.14756401033195768,0.037648605008649444,-0.006667662840519135,-0.07259106535151437,-0.16539603603931535,-0.1694466886414705
-0.21010905879447972,-0.1912399356592478,0.01886912313523193,0.2008860709084213,-0.11512151320719471,-0.0862369446970824,0.15624059940685162,0.049717899436236716,0.006037568821594337,-0.05979637126810271,-0.1561708311868835,-0.1670363777160103
-0.19282806807651315,-0.19821199172048914,-0.005383923643975997,0.19513955249558804,-0.09345434713786509,-0.1024173535935599,0.1719561692408779,0.056055105573402195,0.012927189643176252,-0.04524281151577878,-0.14339712251957437,-0.15620178085087755
-0.0744130972627345,-0.12516016497691365,-0.05074706771417919,0.09974970965350902,-0.011729354677494504,-0.08859181011580125,0.17521458085018016,0.07532254920893884,0.02990461458250608,-0.023171905160768322,-0.12806442463238948,-0.13644083676177307
-0.06085015849878785,-0.11208725511759868,-0.05123709661881082,0.08648554225537133,-0.004220098350667956,-0.08167597230042034,0.15754349116202623,0.0836281142769454,0.03886450272037738,-0.018174614596496663,-0.13410462964232048,-0.14402047228470274
-0.06537626980346041,-0.11376838502895101,-0.04839211522549061,0.08894321293935119,-0.007860287313430145,-0.08169463909723479,0.1516353100461932,0.0798439193191233,0.03422932257084589,-0.021884696555217388,-0.13765515801683864,-0.15278802809527592
-0.05802464382495477,-0.10834552940763029,-0.05032088558267554,0.08316446767820436,-0.003804249150064608,-0.0800084791867819,0.15270350464556287,0.08488284618336173,0.04257228504630455,-0.007770336164573755,-0.125999796162068,-0.14184740334816803
-0.09862589133435144,-0.12232259760128457,-0.023696706266933112,0.11007402188437877,-0.037748528268786725,-0.0729461244228588,0.1590420999517517,0.09407448913731145,0.053553002151047906,0.00362349858779539,-0.11537950980828349,-0.13204118889679103
-0.20043850067450028,-0.15881018225513696,0.04162831841936325,0.17986223501741652,-0.12178625598297164,-0.05872423969308699,0.17216323394708344,0.11279831233271408,0.0704873960633694,0.019484539395888,-0.10372838336942208,-0.11866907047038085
-0.18767821832758938,-0.14325542891949472,0.04442278940809459,0.16499232103291578,-0.11595475411910876,-0.049649280385120835,0.18019366233487816,0.11133171453600124,0.0716764716726025,0.02102754571661072,-0.0973546355092019,-0.10805972252438231
-0.1206283062653371,-0.09547254392922702,0.025155762336110037,0.1077478669776428,-0.07364523725374056,-0.03477116045646312,0.18292353841712267,0.12915411917741612,0.08878174195251902,0.03764389960731087,-0.08590345483643295,-0.0994879670537028
-0.11576916968108568,-0.10893632869532904,0.006832840985756621,0.11281112183337108,-0.06158348859360637,-0.051805410975918044,0.18008476046467453,0.13638442906020193,0.0969581399886557,0.041345629558490984,-0.08243136876828244,-0.1009469408235593
-0.10740072688553874,-0.13214665025562083,-0.02474592337008208,0.11895458490921249,-0.04128045039732311,-0.07839394776519135,0.18240120458845674,0.13408996652098823,0.09844190639497635,0.04465638230656653,-0.07867360645428557,-0.09682383883646217
-0.10881570492049354,-0.13658831519706524,-0.027772610276571668,0.12223393872616974,-0.0398904168451064,-0.08284012108171258,0.18484762106764402,0.14264486759347736,0.10919105481981174,0.05439816392140973,-0.07205401822502878,-0.08842272826131502
-0.13057738950334266,-0.11858645683735852,0.011990932665984118,0.12376319432494404,-0.07069429578573651,-0.05395019604028322,0.17990797008042397,0.1478797829795918,0.11084491209498258,0.060154009180970795,-0.06809156685226612,-0.08918024963921932
-0.1268697461918068,-0.11190077760062733,0.01496896859117946,0.11984027404585097,-0.0701912119453167,-0.04823858587511101,0.1745549177689097,0.1446758464106018,0.1089616142312755,0.06076331260628193,-0.06556056926928397,-0.08652120292850776
-0.08932582205954084,-0.11039487681830965,-0.021069054758768798,0.1002114574194152,-0.03449722081140205,-0.06552419228795306,0.17461582346768045,0.14390133462755314,0.1166806886385185,0.07040311389377604,-0.05321976906973019,-0.07630932069334369
-0.003401394965250972,-0.06701686292949192,-0.0636154679642409,0.03451530346343389,0.03029468479336495,-0.06573887547297037,0.18355479693832072,0.15961726501485304,0.13919335511645065,0.093187061025405,-0.029870297459459395,-0.04819212866283078
0.035594564273676126,-0.021555032836109263,-0.05714959710978538,-0.007677543493968012,0.04720587548873256,-0.03995755570930877,0.18198660785319132,0.18592606861259078,0.1615443186461941,0.12010623509646386,-0.010523456713534395,-0.02871060459234384
-0.015041798907844166,-0.03176505495328914,-0.01672325604544498,0.02371259112245916,0.0011029323833201294,-0.024374914203306862,0.1724791978605284,0.18701221875253388,0.16753979705186983,0.13175170158002794,-0.00518255424829416,-0.02320122587997266
-0.03239472710497433,-0.046670491952078334,-0.014275764847104007,0.04004450020282268,-0.009148486979952878,-0.030056218615435563,0.15455788932008166,0.17435063763514672,0.1563111135783379,0.1283544112686053,-0.008072662412758093,-0.027524935432463146
-0.022232873507498356,-0.06341669510425442,-0.041183821596756064,0.041905307705618434,0.00974819688134535,-0.05260374548616282,0.14716536374406142,0.15923612756276367,0.1418052558501866,0.1192397998886172,-0.012698698063938307,-0.03067227283534903
0.012729531622700248,-0.06351711041869962,-0.07624664204139987,0.025279810519265575,0.044669482859635866,-0.06971614514311333,0.15520414618580866,0.1609228681876116,0.15190038057092636,0.13041158213315096,6.42435398843357e-06,-0.01990870817651789
0.004150131399659434,-0.058740726258628854,-0.06289085765828831,0.0275785143829011,0.03374457861887399,-0.06001575717607784,0.15169003378931625,0.1767885166814981,0.1689041239110617,0.15057702838085654,0.014129465488081675,-0.0068088277864382495
0.00019268911216991055,-0.06109840760064031,-0.06129109671281019,0.030022876981727085,0.030943716751064543,-0.06131784266406985,0.15309031846241614,0.17776731269039986,0.16775307294959005,0.15876323802863648,0.023537445544060513,0.0032586258820626562
0.05615571734224568,-0.020041217399528084,-0.07619693474177378,-0.017887148143336556,0.06638188338681338,-0.047377570846718724,0.17677604500120692,0.20065819204276658,0.1907589180593327,0.18580986329538596,0.055185651245400195,0.033732811252936035
0.08090063521784505,-0.007929509637379178,-0.08883014485522421,-0.03660902980233746,0.0851043697074364,-0.048696128777817566,0.16202165920130768,0.2224323044850431,0.20550492982232083,0.20197140719870374,0.06048238286487296,0.03742781346015133
0.06035678812627585,-0.04063832661027682,-0.10099511473655264,-0.00908166687092644,0.08065310727066395,-0.07096312950530334,0.10957733323448463,0.18460851163767467,0.16423414354594093,0.16727720150061975,0.02367878041434039,0.0014678209321319355
0.08901236186946489,-0.008087886812441913,-0.09710024868190681,-0.04020853307504197,0.09302095191533183,-0.05226096343104197,0.10387789193266887,0.16612569452584314,0.14847079564511662,0.15636753678738927,0.024745589087539266,0.002594945205528756
0.06790217696689559,0.03914687203972738,-0.028755304927168213,-0.05398251634818138,0.048580852678700555,0.005267397249822956,0.12254157358468973,0.1947010549584464,0.18277135960800195,0.18871724027326253,0.05772233621262084,0.034632287492038644
0.019629885782985485,0.054093607103576566,0.03446372132059109,-0.03596636251094697,-0.006600441092881568,0.04485110649549861,0.12768532683128475,0.2069259796309865,0.19732749116689954,0.20475391979913315,0.07727349809040365,0.0529725308071557
0.03478404815837084,0.05778040021335283,0.02299635205498199,-0.046773102441301354,0.006140176277332982,0.04045315699708993,0.12896097155308237,0.20671032754212346,0.2041084378709032,0.2135837470279904,0.09222271127603718,0.07117621193917684
0.07213779002011775,0.044258029112057305,-0.02787976090806042,-0.05787370594458871,0.04998671843887773,0.008536588179904036,0.11011623070064994,0.1996608375329824,0.19999097288239917,0.21291025643863296,0.08937375026744143,0.07097583104211336
0.07270167058419583,0.017742519548157757,-0.054959151036038066,-0.04456810831469727,0.0637857561285725,-0.018782288919861154,0.0890850987901108,0.18892048094094108,0.1916114809722495,0.20870928972529093,0.08191983502143836,0.06712075727493429
0.02028627509318187,-0.031970394003118435,-0.052256669096300314,0.006565739126968584,0.03654371299217325,-0.04173738449068191,0.071112533508648,0.1738382956453404,0.17775534188569497,0.19425063550548546,0.07069477870719311,0.05262093680931737
0.0036044024138304175,-0.023802714113207758,-0.02740711652703819,0.009708904158885904,0.015657942834419455,-0.025145287883147422,0.07648366532363596,0.16419708211977174,0.16653970296002085,0.1890707430185221,0.07746936875632707,0.06033138794363065
0.06951312560907583,0.03059277958427773,-0.038920346024798096,-0.05041204503031953,0.053890429776739836,-0.004439668173386791,0.08936526833895266,0.16924731117531971,0.17196801862247327,0.1934174834043167,0.08845545419764915,0.07202690931927296
0.13775866497112296,0.0639588213146293,-0.07379984365649364,-0.1009881138794991,0.10564515664732627,-0.00504581224275049,0.06917917871514971,0.1664101129135778,0.16420420221683146,0.18375088140838503,0.07498217612101944,0.05796635577140591
0.14286166349762897,0.07131613983183778,-0.0715455236657912,-0.10733007600678206,0.10690818156014428,-0.000483923539432767,0.06062700378013304,0.1644339381237776,0.16423214839837172,0.17744084844590524,0.07294193298709398,0.06019055224665197
0.13230930060792703,0.05233514246956623,-0.07997415813836083,-0.09254657158721533,0.10684414554759572,-0.014223866259705202,0.053733032104011404,0.16477449822235188,0.16495725426732719,0.17838884674460226,0.07336123485892597,0.0606881752307617
0.12824275370055999,0.022886936419803296,-0.10535581728075673,-0.07489837657735877,0.11675934558818624,-0.04113482551086236,0.03360209109780156,0.15049791392519252,0.15105658957925633,0.16183857863587184,0.0625188839452464,0.051945376124542704
0.10289447962501665,-0.0037702843019411887,-0.10666476392695785,-0.04894531299587101,0.1054517737477162,-0.05460223381872347,0.022158800076166253,0.13497971755990726,0.13459886459326606,0.14889345479118538,0.05578287159444641,0.04029044757250998
0.08196158946755087,0.02281025660138168,-0.059151332866169186,-0.05236480377595933,0.07032441946944834,-0.017782832951436192,0.023841216902287438,0.1255623951469089,0.1308368756484493,0.14533816628950236,0.06279486491728695,0.049126727091821296
0.11290342504785653,0.08814004724365954,-0.02476337780419698,-0.09991473000007357,0.06858808071845578,0.031504448918206744,0.015618811058019691,0.1158588515930014,0.12719165714397768,0.1461818709808857,0.07148635696193754,0.06016306828563991
0.11647894354150337,0.09250957516907794,-0.023969368372425425,-0.10443814281827893,0.07009720027401689,0.03461138922527176,0.012982679461293584,0.1191489944684882,0.13565364027080523,0.1589380574728649,0.08597209351252186,0.07762264716592523
0.10932016817343462,0.0673458535056674,-0.041974314667767236,-0.08796080773015068,0.075898028314216,0.013421946577983922,0.013589924052680636,0.12388407069538468,0.14031405181914114,0.1686579128818976,0.09097161379000904,0.08242514420977202
0.0876151073837102,0.016449247306029136,-0.07116586007768107,-0.05221697151301558,0.0790423968524962,-0.027671239376950842,-0.015029956505492399,0.10301597239812013,0.11044547061047756,0.14104220402019543,0.06047516809367591,0.04939911990080685
0.05216793611669956,-0.0020636135634194545,-0.05423154968011902,-0.025285692237935482,0.053661868557524826,-0.028896153030541084,-0.029107528827300305,0.08590458564127984,0.08634769181293518,0.11359690802203254,0.0409188325676599,0.025599621658661812
0.03779979490405097,-0.0002557565339499747,-0.038055551438000955,-0.018772406356740448,0.03712661166042107,-0.019061118090571913,-0.022148028904952627,0.08039784134464227,0.08276785681772239,0.10566240798218599,0.03717497124888543,0.023961726226871
0.08905229924229312,0.04125493940071108,-0.04779735984158203,-0.064433198901732,0.06789750658537935,-0.004047074561816703,-0.0059705689950522904,0.08108022279230817,0.08903397959922611,0.1090976953037814,0.05270677496432598,0.042237561603387715
0.1394858664820619,0.04767658887630465,-0.09180927760575722,-0.09329379600095303,0.11555373980737675,-0.021670161991942445,-0.019425380689140036,0.0797010974081174,0.08481053666510231,0.0996388075476194,0.03993836406610243,0.02433906150569538
0.10939847159160447,0.011965298183976207,-0.09743317340762826,-0.06132891108142362,0.10305707205121967,-0.04233329657106568,-0.021306658562974937,0.07031561904275976,0.07503923236510636,0.08997102514296325,0.031644900722269616,0.019760031565700328
0.0067128393765576765,0.015661004588744348,0.008948165212186672,-0.011267777414970427,-0.0009158947995941945,0.011524369028155011,0.01882659344240879,0.1104967798544773,0.12088505463752741,0.12635343446042663,0.07171741663168502,0.06169758566996773
-0.04663588098847608,0.00825743421938128,0.05489331520785737,0.019569102353291082,-0.05058874235414804,0.031673582141460425,0.018784920684191193,0.115103241673238,0.12470529019571483,0.12871785998656488,0.07063921632575056,0.0579236999947746
-0.026210076064275313,0.009973527610410959,0.036183603674686274,0.007897560657877462,-0.031522339662169364,0.022957814338729416,0.01214412770552781,0.09558188583984788,0.10335823773017122,0.11137158322837877,0.05817915630281592,0.04686951225209809
0.005883112331146792,0.04646559651978291,0.040582484188636136,-0.026292287779158412,-0.01750479794286227,0.04321659894417657,0.025428897950808996,0.10085563687873454,0.10705706838510098,0.11165735978007155,0.06520079620822943,0.05492836274600463
0.06411854685620612,0.08587593599887625,0.02175738914267013,-0.07559167020507263,0.020314898803265313,0.054528477779822906,0.013834795921257978,0.09605302558210645,0.0991631719437975,0.09878045583615627,0.05266219259089942,0.04065698354556435
0.0755003332807359,0.07851926398305853,0.003018930702322604,-0.07680281145573906,0.03664581842889133,0.04132810981347081,0.000250118986806308,0.0908253847209056,0.09373150424746919,0.09032694287709316,0.04266159768877715,0.032010699765912205
0.03976479012661232,0.04092236380871124,0.0011575736820989455,-0.03948019359301988,0.019318468089085966,0.02112461924616263,0.0011923558609769713,0.09211417917093974,0.09455157559643575,0.09376967417703914,0.048267100908110865,0.03257644324784345
0.011061245005880873,-0.0024001618337962396,-0.013461406839677115,-0.004125712963706633,0.01290957214383779,-0.007612742393508056,-0.003887971926880941,0.07582874588686607,0.08117519373362338,0.08081045927208577,0.03750260952242325,0.024691662361783908
0.05549954143426859,0.03840942490021902,-0.01709011653404958,-0.047546565250391304,0.03687942511334993,0.009916196838949825,0.0015207508563609589,0.07355599129697064,0.08163034694324924,0.08098431161474963,0.04069403665948724,0.02994628729950172
0.08117892825477582,0.050891737566039465,-0.030287190688736344,-0.06678910436518376,0.05582459435417296,0.010387696153426157,-0.006674101521357842,0.07603062457188119,0.08385065726236202,0.08010127341070278,0.032691586555868644,0.024875293103955892
0.07481987926051521,0.01655514516048959,-0.058264734100025604,-0.04589495912720628,0.06620786208336844,-0.02098588000789305,-0.023932028561883013,0.05478251486710853,0.060851964461630575,0.06283135502374267,0.015252639053833731,0.009166727878126044
0.09070137576239629,0.04255612251313966,-0.0481452532492566,-0.0662862457122132,0.06936933750361364,-0.0024225717807528995,-0.028693256609149575,0.04888090036079451,0.05357608429706109,0.05614298015055125,0.012050653035455423,0.006238341323861709
0.08892435152601376,0.048896563827481955,-0.040027787698531776,-0.06875135859719288,0.06446823950008619,0.004877098316140152,-0.03185075591757348,0.05309305208812593,0.05377444076297441,0.05259044023544588,0.0068379471001591184,0.004264656774722787
0.049717342364509885,0.013421035648104568,-0.0362963067164053,-0.03072333504389883,0.04306200823544812,-0.011672598555009954,-0.04161213652862515,0.041115482288405274,0.043093963959319276,0.03805973051102638,-0.006996290720424385,-0.009946408347539073
0.00454028261466158,-0.022385044453154524,-0.02692532706781611,0.00920178543207011,0.01559915720117651,-0.02422431019979392,-0.02940178802823642,0.04027325752432139,0.04488992806890489,0.04183464188026351,-0.0004560946732590448,-0.006117117460414554
-0.03596142023747037,-0.024994535209148704,0.01096688502832165,0.030356581347578113,-0.023668942493563307,-0.007244209180313649,-0.0170652654263573,0.04697598022497529,0.056049449377925324,0.054720380380878515,0.015497835499195008,0.002235291651182933
-0.054499560581145044,-0.035269474400427714,0.01923008618071731,0.0446004544536572,-0.037166373210972714,-0.00821606353023138,-0.031322764029498296,0.03479574706503194,0.045576113496336924,0.04689037083420481,0.00675423666219329,-0.0054697430046746235
0.005801502801130231,0.015994754499049413,0.010193251697919176,-0.010216675508624807,-0.002656831595317351,0.01283676109977011,-0.01798755943653571,0.04580540406082708,0.0542172888363005,0.0578481421428677,0.020374362309121385,0.011103803479016641
0.03304975791901161,0.05614261711824014,0.02309285919922854,-0.04395522242377168,0.005154507476064801,0.03964594139184405,0.00182037948161796,0.07903262489215954,0.08629288376768773,0.08881110623058659,0.04815825605934585,0.037353704414685204
0.027633087406790498,0.032239442252875776,0.004606354846085276,-0.02935252167983517,0.01201762233030077,0.019056079506196172,0.005669036042089442,0.08466562527609002,0.08769970658150532,0.09281918742629652,0.0495091346434216,0.03369291264531038
0.010891806854722215,0.022680453192577762,0.011788646337855542,-0.01666796611302934,-0.0003188469729899099,0.017822354223728545,0.0008386105595399353,0.08903988898475412,0.08636942700452929,0.08901269253070261,0.046023846528388604,0.027767352070993345
-0.033380259843976315,-0.013474767657748266,0.01990549218622804,0.02366839133981954,-0.026349539359119968,0.003926616556765662,-0.008917405877249339,0.08110408600874115,0.07831757715842214,0.08037344959019613,0.03770406165631496,0.019492525576461774
-0.04561441822437306,-0.03358013880402767,0.01203427942034539,0.039213462253688054,-0.029555534482795704,-0.010472515114892942,-0.004814252293141526,0.06892435594918221,0.07179980525753464,0.07405098420439447,0.035299655410920894,0.019435197005424613
-0.04990891897752949,-0.04199977236572888,0.00790914661180059,0.045879253706138594,-0.02863880591677849,-0.01774784244817889,-0.007500765581113305,0.06499404334935367,0.06560974931111012,0.06730504646544828,0.02318347728679842,0.012404452016048114
-0.03357602739803287,-0.022643059559991133,0.01093296783804173,0.027141955598889114,-0.02142648632706557,-0.006473691122088875,-0.014154424700283084,0.046721328666855896,0.04884716181807452,0.04643341029315249,0.007384321332857932,-0.001593349878148731
0.07685709756386971,0.05436302240200534,-0.022494075161864403,-0.06565918859436484,0.049867183090459316,0.015315192074265436,0.0039776715676835325,0.06033586642863581,0.06323423501605159,0.05993375593668566,0.025605364654149875,0.018300651303717788
0.12438178225437892,0.11067093740941072,-0.013710844844968203,-0.11796839856709272,0.06867513963696646,0.04840749677132723,0.01596904082110847,0.0914724247651221,0.09404575131226073,0.0876010619020958,0.04684165583398939,0.034619479224735454
0.07063595002809098,0.06449142383339516,-0.006144526194695823,-0.06720355613890788,0.039117378112714776,0.029489284644108348,-0.005966927529499989,0.07752937592477156,0.07325579050460315,0.06762578311921179,0.02051085362024151,0.009315208845957811
0.02286510353812507,0.020037676263162735,-0.002827427274962334,-0.021729205081444054,0.01282568051274232,0.009112519965280081,-0.017172904449448807,0.05376962523354572,0.04606547897459915,0.04535253337389916,0.0053765344462626576,-0.00564546130882041
-0.014870193702262634,0.0011101076420105638,0.015980301344273192,0.006448011695048738,-0.01563600220545616,0.008223828676289208,0.000950303466458699,0.06487825484637245,0.056508763443491504,0.057877160546961015,0.019418235491110356,0.006627059152561873
-0.014969954658176977,-0.006894251107613059,0.008075703550563924,0.010867041531534396,-0.011753870472536837,0.0005172212332760455,0.004457949905952796,0.06546858078233395,0.057863814358475194,0.06079754801859137,0.019662688953854035,0.009509712509800611
-0.027569920565708277,0.011537252326362693,0.03910717289207096,0.007703920530203907,-0.033536900683248785,0.02488038533098684,0.005210414988262137,0.07601272179199078,0.06303064380782282,0.06790198303804056,0.022831258792545314,0.013666724850385123
-0.05514691050345841,0.004548347189019067,0.05969525769247747,0.0258124971695696,-0.0574687718963089,0.031841327129139445,0.021973968743747473,0.09373270430529061,0.07613652359982222,0.07891825108006437,0.03373230898620478,0.0278793953923919
-0.028170294104505878,0.021406152192591385,0.049576446297097274,0.003711336845352909,-0.03872777958673744,0.0352014951437847,0.0458414838662373,0.10742109016583838,0.09531938617452293,0.09761198931080971,0.05639044153123445,0.04365943844302918
0.03766307659319407,0.05137666507643837,0.013713588483244318,-0.04522172348416034,0.011522072213565153,0.03274705644853715,0.04118317071553422,0.10835748626984763,0.09174390991957486,0.09885744492688679,0.053407055182808666,0.037677229053374124
0.03869127035800805,0.045102877148071534,0.006411606790063477,-0.041881946076589904,0.015850714890512683,0.025664273154457958,0.03623134310066705,0.11899232884529248,0.09650880650575892,0.10122936965820717,0.05044518876170301,0.034684688034044384
-0.004764296844855524,-0.025357306526578662,-0.020593009681723142,0.015266716323275134,0.007660228686765171,-0.02389477976441799,0.038529692851268886,0.1306539522468829,0.10152958559600674,0.10328600414030861,0.04242950854821457,0.0277780199501552
0.007222221355474273,-0.06634399032934112,-0.07356621168481538,0.02981690375657142,0.04052717926645913,-0.0701290752402838,0.030668971337072568,0.11660520650101382,0.0808376541313196,0.08131782404313036,0.01276470746070195,-0.0013234358281585716
0.0643841961411178,-0.050472964341184534,-0.11485716048230232,-0.0074465688954437215,0.08984634571030768,-0.08226654975605101,0.04495924563050824,0.13849359336395667,0.09566539000386014,0.0852546760479017,0.004842813557786745,-0.015813411384273758
0.13444837888894237,0.0033144503119920663,-0.13113392857695033,-0.06853614380465947,0.13305508958476647,-0.06413036372208035,0.08405518436831402,0.2040416505932665,0.15678756908690972,0.13300530565863355,0.03478751372039575,-0.000371580337197286
0.08822107593703597,0.011546636288303455,-0.07667443964873254,-0.049444694234770145,0.08169995604135213,-0.032752318767507886,0.12460202998769743,0.300283139310639,0.2449481600531513,0.21672861938815335,0.0881755481725065,0.041929204976484766
0.023497265626276454,-0.005188913277029409,-0.028686178903305864,-0.0099634556921627,0.02581275334736622,-0.016576480516013514,0.1522223029680807,0.38809018986737553,0.3252594687424017,0.31182423226061284,0.14887908611325978,0.10246061803016161
0.10637708200726856,0.03991915817621497,-0.06645792383105359,-0.07281680512977691,0.08626558188601861,-0.014008960637216369,0.1469960409322842,0.4663205992145995,0.3942346231613859,0.401364677684743,0.20630491065071552,0.14450792100266394
0.2314125309521775,0.07246486929542853,-0.1589476616567491,-0.15178251444260973,0.1942743618192941,-0.04319406677480775,0.14002527110697974,0.5936055159125169,0.49285142880374083,0.5202103964516902,0.2635692413875486,0.18478289241818255
0.34753597792014373,0.053504814859296014,-0.2940311630608477,-0.20028400493699952,0.3206579205336322,-0.12092651724942398,0.13330027815183673,0.7633968269282738,0.6197757519178079,0.6673805504322714,0.3336261038385205,0.23255434024338326
0.4350564801250344,0.02494510374627993,-0.4101113763787544,-0.22978032549470867,0.42285968049570444,-0.19259166657509913,0.13273355243640897,0.881907666573172,0.7322592929870678,0.8160107386086297,0.4292197053842997,0.31294191415636297
0.5814231796224538,0.1285518731628735,-0.45287130645958024,-0.3548316250619686,0.5167260431743675,-0.16195871788978086,0.13389500603682863,0.945516381884896,0.8170736392801834,0.9622505402462572,0.5444518448660506,0.4356919493976573
0.7477583672326732,0.2582460210199837,-0.4895123462126896,-0.5024831248120372,0.6194214049077802,-0.11474896582897191,0.08916612839594018,0.9137414700693137,0.8281833016374439,1.0441993314060547,0.6318030442213923,0.5308750369256101
0.9030064874093867,0.32868358552156435,-0.5743229018878223,-0.615080711762493,0.7390059334444123,-0.12270461901761802,0.012075089586698477,0.795027611210505,0.7627294302257646,1.0547429954846326,0.678858266287434,0.5883959655966909
0.9836991005855501,0.40497139870585896,-0.5787277018796911,-0.6940527113029579,0.7803648482538369,-0.08713774028001416,-0.025317377104472856,0.6988590430830061,0.7169012189746383,1.0782011233165265,0.750160420093713,0.678077614290584
1.0713391111642199,0.5016237370403142,-0.569715374123906,-0.7865282649573487,0.8210237668656538,-0.03369235207772201,-0.060994956112784895,0.6071911591081068,0.661539063781545,1.0701161803574089,0.7996579637607175,0.7400975406568314
1.0943466960741073,0.5300556054227145,-0.5642910906513929,-0.8128388423119403,0.8289269960533455,-0.016980246700650296,-0.13596889651256247,0.4291919183984305,0.5074298407616309,0.9402210386236062,0.7512245524644257,0.7244935798600831
1.0503308619810021,0.5421574704917106,-0.5081733914892914,-0.7966414879720507,0.7795715608508135,0.01721160555164718,-0.20245693417034477,0.20723227386624285,0.3157895933573369,0.7554443844256865,0.6807718912506852,0.6966358394346938
0.9040150348327032,0.5503854034802739,-0.3536296313524293,-0.7263481977028126,0.6285703040631736,0.09800336205772082,-0.27980819876451196,-0.0232332789539922,0.113022235015481,0.5416437724530546,0.5919586803703203,0.647071825449306
0.6396017450951739,0.5444864653083035,-0.0951152797868702,-0.5924855241252504,0.36687952072857183,0.22457733849084216,-0.3568304326894825,-0.29656929423201445,-0.11501975424827462,0.276985000726201,0.4767376435918922,0.567434288390601
0.36796762930328075,0.5033362474321138,0.13536861812883302,-0.4360271921285416,0.11709933413132802,0.31902713512402175,-0.41436903367719957,-0.5795818945963653,-0.3574783347684727,-0.028188996608726334,0.3317604022583158,0.46077705429357746
0.16479148185139306,0.48909197351554995,0.3243004916641568,-0.3261689901819136,-0.07984352662432698,0.40680600896212465,-0.43024528948717883,-0.8093911047424632,-0.5747684734268674,-0.3177859501856241,0.19189600690755598,0.3569619732024343
0.06947896907700576,0.5302248842141658,0.4607459151371601,-0.29950810832467056,-0.1955949691787064,0.4952030676641391,-0.40374155666648914,-0.9005724649514366,-0.6900770983209408,-0.48947108392730426,0.11621752809333202,0.2999307330679061
-0.0034602071083070633,0.5351095724605572,0.5385697795688641,-0.26664950100566726,-0.27101605501112824,0.5366339861611744,-0.3975446036962243,-0.9201780676441202,-0.7459754103297443,-0.5920707312066823,0.059924052781551954,0.24957278199463256
-0.08782366682047218,0.4659279173751972,0.5537515841956693,-0.18922631096753598,-0.3202002752799434,0.5096534118869009,-0.42772406294779686,-0.9226148704690187,-0.7787352139004287,-0.6579045773745639,0.009314694748977158,0.19130218526114193
-0.18991217901984217,0.39091938393887576,0.5808315629587176,-0.10079556266728418,-0.3852644117232205,0.48620297181831496,-0.4556670789624344,-0.8894848237054169,-0.7804574179544562,-0.6780794574732677,-0.02259106648119254,0.1479000915826124
-0.1751167820772887,0.3942467460854981,0.5693635281627867,-0.10959728969734418,-0.3719807286184639,0.48194236162640847,-0.454525074193729,-0.819543165508637,-0.7338583197852616,-0.650773979842128,-0.022854233766170524,0.13096973544664767
-0.11874269471694814,0.38129887045733535,0.5000415651742833,-0.13198994791965835,-0.3093809298463364,0.44091608462531756,-0.4406889777581703,-0.7206892701994362,-0.6620237322591414,-0.5944503845058868,-0.02106097540453837,0.1105654718147371
-0.0721461364295172,0.33176628498910693,0.4039124214186241,-0.12941246999072378,-0.23816044117612525,0.3680337905432403,-0.42201602439271,-0.6277366442848492,-0.592671311042835,-0.54952555580533,-0.030203865002234532,0.08297818038547436
-0.07470830049040406,0.26364752294365784,0.33835582343406184,-0.09474266885976713,-0.2060829598390151,0.3003874876482851,-0.398308349554045,-0.5366276655287487,-0.5286659873270455,-0.5092354920452998,-0.05121204257660447,0.0416282134009951
-0.14125511548099964,0.1588609853303655,0.30011610081136525,-0.00928210121096184,-0.2210425121917565,0.22939042683433247,-0.36885111273474264,-0.4612312593408578,-0.48087455535022616,-0.4742440659387557,-0.08040993411740632,4.901823177074433e-06
-0.16887933637462893,0.12482548487886597,0.2937048212534949,0.022232263196495006,-0.23163832923213162,0.20961767288438285,-0.30370765295876767,-0.38691631230644935,-0.41999208335164717,-0.4262461353330414,-0.07879044300951338,-0.0058495069195116075
-0.13021557294659564,0.1271201437761976,0.2573357167227932,0.002023410850009853,-0.19334048527400297,0.1926826106104276,-0.2324572777203385,-0.31266399010123214,-0.3523065020472017,-0.37052404265344463,-0.0596220619696934,-0.005346583343875962
-0.029729576689765964,0.17391382960522497,0.20364340629499092,-0.07191341660237201,-0.11742867102959753,0.18853520124731962,-0.1753431006486131,-0.2456037674152902,-0.28683884185558123,-0.31449006104587707,-0.03567889881536863,-0.0011220030861789293
0.017576550517977498,0.15997867202824204,0.14240212151026452,-0.08917839540120223,-0.06306111301015539,0.15162743982121207,-0.14787257696198994,-0.19909629661626277,-0.2466260096416992,-0.2796343108087359,-0.0443923426973399,-0.016040230409279994
0.008192893769839817,0.08405908532861359,0.07586619155877374,-0.04610181264573402,-0.03416492600010142,0.07972676547319585,-0.1396177960238164,-0.17791463124502158,-0.2313956959962479,-0.2645607968904169,-0.06833261357117731,-0.0460378086730096
0.012501131529807571,0.045124064232668355,0.032622932702860784,-0.028925275336511902,-0.009388957754837052,0.03868411114245523,-0.1356273405768305,-0.16383190693314284,-0.22357237097661356,-0.2628058818445752,-0.09858102931574637,-0.08190325900786997
0.003444846213556629,0.011711820158007834,0.008266973944451205,-0.007795122163253366,-0.0017048169514190423,0.009721230013587918,-0.11886544425404766,-0.14568305372863666,-0.20808636318954035,-0.25129075209341484,-0.11776251601378854,-0.11058677536359868
-0.04735496286411714,-0.05857619718631672,-0.011221234322199562,0.053319136126537846,-0.018454832593869992,-0.0348552154377766,-0.09546895837785725,-0.13046779936022326,-0.191286035215529,-0.23700964805083172,-0.12887733001261534,-0.13141398858294404
-0.028880121746760308,-0.0980568709727916,-0.06917674922603129,0.06298513364766689,0.020414713979985382,-0.08362350982237804,-0.08100747874722705,-0.13040520773131115,-0.19116414930735906,-0.2395839279369995,-0.15102165109946725,-0.1519830589917855
-0.017352466282756555,-0.09300642136556365,-0.07565395508280712,0.05602590765556184,0.029646087558146714,-0.08390606051851415,-0.04425806540660846,-0.0929270991736983,-0.1557628756558742,-0.20590570444491982,-0.14119049642412534,-0.14232173685192914
-0.12840444291464462,-0.10450116434931626,0.02390327856532832,0.11691218742587159,-0.07702703312281023,-0.041202842680657076,0.00851874622291877,-0.04498169781631011,-0.10764821064076663,-0.15673841362932234,-0.10521624452399879,-0.10616022361481287
-0.1756119774541055,-0.11016924445023575,0.06544273300386974,0.14372761835728282,-0.12075691423888582,-0.022471744032520228,0.0417360431825066,-0.022739080953532862,-0.0797000525209163,-0.12786190012507723,-0.08582204211693686,-0.08293123398711334
-0.1662290986303296,-0.11023394147130681,0.05599515715902277,0.1383977920664957,-0.11107947561377446,-0.02752964366491203,0.03801950305055857,-0.017026526709404084,-0.07506634945766485,-0.12110084145078702,-0.0916203008187229,-0.0924412015532342
-0.1778038020739095,-0.13016734453545717,0.0476364575384523,0.15430676650100536,-0.11273950992432764,-0.04157973101047273,0.036635808958332995,-0.024742452731780985,-0.08207244548258916,-0.12496322188666183,-0.10246401170501211,-0.1051364510521754
-0.17751875155857827,-0.16964529661848946,0.007873454940088816,0.17341534983965098,-0.09202828230874235,-0.08113052189943226,0.026579910135601417,-0.041153782134086644,-0.09351381513744969,-0.14248435269626294,-0.12677870834488728,-0.12674627714189132
-0.22125795398218645,-0.19241166164446907,0.028846292337717336,0.20664234535468193,-0.12466346226577123,-0.0816645033016511,0.028730009859725403,-0.04632348293017605,-0.09633487420095871,-0.144800985724819,-0.12841606420841278,-0.13140093707379327
-0.22325310018924965,-0.1617867169528518,0.06146638323639786,0.19205512617346315,-0.14321080059313018,-0.04929776149967052,0.04861212864535256,-0.03593297512257639,-0.07853824281492494,-0.1217889709345655,-0.11119672923924537,-0.11876648308167352
-0.18156331941096718,-0.11737841297754587,0.06418490643342128,0.14927813232418768,-0.12241584768544692,-0.026350378015285992,0.06435463571911237,-0.026100128843325222,-0.06706224086170448,-0.10494731604556126,-0.09850311169671098,-0.10837566192542954
-0.10304862166847352,-0.08266989548820625,0.020378726180267256,0.09331926848628683,-0.06138705630175884,-0.031233074731258297,0.07429456049047084,-0.020807290521041733,-0.06021465064408343,-0.09610695503053485,-0.0936326137061442,-0.10418062143769531
-0.03299090303566964,-0.04146472426524009,-0.008473821229570461,0.03694110329514821,-0.012115579925891332,-0.025502716164093275,0.07199898197842439,-0.025948927877394803,-0.059394491588166926,-0.09964477435334311,-0.10100648847274936,-0.10602204031735346
-0.026827350427027257,-0.023241681152707774,0.0035856692743194887,0.024981797576748628,-0.014325877929590492,-0.010009320571429775,0.06326523749781046,-0.028694441051992647,-0.05756499614303942,-0.0985120648135211,-0.10868144134390051,-0.1122156442607592
-0.0911950127128091,-0.09523860438524996,-0.004043591672440864,0.09254272824561809,-0.04400716008218578,-0.049168278679556594,0.045938897974170424,-0.040190881894137394,-0.07245908106560738,-0.11041858706854009,-0.12881908353964105,-0.13439453279315655
-0.16981166439183176,-0.17634438313744977,-0.006532718745618029,0.1734104509522197,-0.08224924672684295,-0.09181683449152692,0.03425284827156646,-0.05666348811084044,-0.0952352472497899,-0.12557274684468658,-0.14582899729277285,-0.15162502269913664
-0.18365368001930915,-0.1941020341003862,-0.010448354081077105,0.18935580789694384,-0.08669717381631856,-0.1019884287635498,0.04515285208066613,-0.06007938130909572,-0.09462249476151254,-0.12598950220551736,-0.14119410739144847,-0.14216843445089017
-0.14564633790560633,-0.17168896333739062,-0.026042625431784226,0.15843121450983438,-0.05944571191740877,-0.09843043268765914,0.059314139751058544,-0.052879337050004874,-0.08996522459892636,-0.11610045797285189,-0.1375784097236284,-0.1286857654997014
-0.15683049896291898,-0.18483651132081141,-0.02800601235789239,0.17061943800698,-0.06395117107002832,-0.10718402790479785,0.055559163748958945,-0.052647959530453016,-0.08864193992120063,-0.11849682330651015,-0.14473961879190966,-0.1402179390332465
-0.16863459545062034,-0.19506715954320844,-0.026432564092588113,0.18249224652392113,-0.07197182890912532,-0.11136894069395677,0.04974203995966044,-0.05987509435174475,-0.09261144694613548,-0.12605467339227366,-0.15225245671268842,-0.145268711161087
-0.13826458958564794,-0.17947326569762814,-0.04120867611198014,0.15953132762833977,-0.04810219470726979,-0.11009844612770316,0.053138200666228756,-0.055518958967581994,-0.08840114072133798,-0.12364763397006953,-0.1491532029517097,-0.14476923332728625
-0.0990388426834558,-0.1696139301644826,-0.0705750874810268,0.13490182264084677,-0.01425677328636835,-0.11996753869914735,0.05492570347170834,-0.05456321261614085,-0.08241450604625819,-0.12285683910359525,-0.14299316046011987,-0.1391273438274536
-0.07491831433290404,-0.132492448152127,-0.05757413381922294,0.10445201148547258,-0.00857291629629426,-0.09512040599834315,0.05140296053329547,-0.05528872957401856,-0.07478713454976683,-0.11413319789122774,-0.1387538786748175,-0.13602303382762512
-0.14731414591592165,-0.18177473556768126,-0.03446058965175958,0.16479777037931018,-0.05616607232012073,-0.10742994982272627,0.0335468389740343,-0.08034924033281803,-0.1026197988889921,-0.13532201747650302,-0.15673585418354377,-0.15221807068981433
-0.12450756509734386,-0.1722252603576093,-0.047717695260265425,0.14857436586678158,-0.038840114430627834,-0.11003767652030308,0.04890998065433276,-0.09502826598437068,-0.11535624391702497,-0.13676243251323836,-0.1538205571749034,-0.14128020829213397
-0.042201172402414285,-0.0872030013711585,-0.04500182896874421,0.06550144218268404,0.0022409691821040733,-0.06538901559491957,0.06649955806487112,-0.06760902228499752,-0.08936200210244546,-0.11457880311850291,-0.13169509527443102,-0.1238270937975554
-0.020222360256674062,-0.05379303554768252,-0.03357067529100847,0.03688013868176719,0.0062938015859759664,-0.04336502394864815,0.066296341047146,-0.0610121878727371,-0.08309367767947505,-0.10858588844444284,-0.12658810063805837,-0.12469429892226637
-0.055357380129860016,-0.08106068197354986,-0.025703301843689828,0.06899427205598999,-0.015525737441213702,-0.05411952391294198,0.05690291483294105,-0.06016743445954513,-0.07970740732393959,-0.10577403915658774,-0.13553165288409733,-0.1288234814158524
-0.09122987865426231,-0.11223944791520588,-0.021009569260943564,0.10198828276260287,-0.03486885391212568,-0.06655182805508188,0.04510707350319983,-0.07461904595252956,-0.09319544981715,-0.12169870246375972,-0.14763336188840673,-0.13256106759669412
-0.08683688026246238,-0.09284750855535899,-0.006010628292896638,0.08983877728557915,-0.0395538042929328,-0.04953375935117491,0.04520564867013329,-0.08047551082422143,-0.09494807340215057,-0.12090452933158773,-0.14541660952446278,-0.1335152785149304
-0.122164555481298,-0.09775688971643763,0.02440766576486035,0.10988249660287024,-0.07313630354398364,-0.03636157967436758,0.05852053326530038,-0.06807027418867535,-0.0803955198820674,-0.10618306351749038,-0.1311449915018569,-0.12161386973979225
-0.13930591777799012,-0.11775834624142603,0.021547571536564114,0.1282631401721948,-0.08009090266804424,-0.04801744791665138,0.06455495277115737,-0.05979404302042072,-0.07186500246558965,-0.09461887504766678,-0.11827491122258407,-0.10914540358296676
-0.14801093629198037,-0.15805928803772912,-0.010048351745748753,0.15348442549118907,-0.0685545731230367,-0.08349781361404289,0.057894961456151965,-0.05584378147811399,-0.07064516438956528,-0.0859937276556104,-0.1159021536968629,-0.10906804561646051
-0.1252838583389204,-0.16005558500750638,-0.034771726668586043,0.14183598195877295,-0.04602961027351686,-0.09670000416886675,0.05129461331610678,-0.05490349205212127,-0.07394324911771955,-0.09028910235108009,-0.11612235680846045,-0.10918364232569812
-0.14524992351582705,-0.14785339882233237,-0.0026034753065053338,0.14629405399612044,-0.07124977696400482,-0.07553720331250541,0.03950003073000178,-0.06542781978313447,-0.08094960782406192,-0.0984768105519603,-0.12337471376637767,-0.1212520227160339
-0.1387332393471521,-0.1339411869729759,0.004792052374176228,0.13641032913495607,-0.07180082485830408,-0.06532564460969455,0.035902057683320915,-0.08052025424128542,-0.09330866066503771,-0.10845802491167991,-0.13101216952985728,-0.12683734693272722
-0.09234502874823368,-0.11764813193741985,-0.025303103189186146,0.1055610261553218,-0.03351440156365079,-0.07137873497351545,0.024198129493239014,-0.08234093531281755,-0.09504319116879166,-0.1124359090931031,-0.13601543823901924,-0.133369477750681
-0.10866231888882727,-0.16580629281387055,-0.05714397392504333,0.13798066468288295,-0.02637044718486039,-0.11225351278163774,-0.006942015877710125,-0.1107252405955312,-0.1263783597782193,-0.1462361497830874,-0.1718979983970343,-0.16781144537719592
-0.14644418358425126,-0.19826847941497494,-0.05182429583072372,0.17198668368538308,-0.04736323516988456,-0.12527907878164868,-0.011447825498119218,-0.1251054202355352,-0.1423695616151589,-0.1632718192084378,-0.1880154242469668,-0.17844817017334488
-0.1064609448123001,-0.15912141734506907,-0.05266047253276896,0.13297946125154,-0.026803223021699924,-0.10549014879305955,0.004604382789944315,-0.11662409928445072,-0.12811751920154724,-0.1465167975545836,-0.16956437337161323,-0.16021755753966455
-0.06833323519508232,-0.11123392059760207,-0.04290068540251975,0.09000774546023388,-0.012897249860199427,-0.07785001344337943,0.01768702753266021,-0.09527352745182305,-0.1041001411049046,-0.12263281457467741,-0.15080180264788304,-0.14080371468770916
-0.14623322360560964,-0.1315536922656941,0.014679531339915489,0.13910838211323867,-0.08059910160754395,-0.05896407364637193,0.020963066928015164,-0.07079238680775349,-0.08815498935127929,-0.10856615496913503,-0.14048347585726967,-0.13179924996623432
-0.16930671917494564,-0.1846005922195872,-0.015293873044641587,0.17715295595729624,-0.07740003237737765,-0.10070683739937704,0.008008181699686489,-0.08848688798448795,-0.11001946474105474,-0.1252917318649659,-0.15444133143792096,-0.146692132443382
-0.15498860770326311,-0.1762896208395293,-0.0213010131362661,0.16650991036999024,-0.06714562985547791,-0.09909118415739539,-0.002038300331173629,-0.10609528922275492,-0.13264093992061735,-0.1440141907996822,-0.17409548591675375,-0.1648562975297227
-0.16374278598799036,-0.17009939469687568,-0.006356608708885342,0.1670883004967088,-0.07896366073323066,-0.08816403544375732,-0.018919477222238162,-0.13054377076188095,-0.15594791700305427,-0.1708604805509549,-0.19668095194370316,-0.19117012772548023
-0.165336668241717,-0.18929951379075455,-0.02396284554903748,0.1769765995331759,-0.07050388266619854,-0.10667359679503022,-0.0063189200810406035,-0.131410501151447,-0.1510869785095857,-0.1666867980758306,-0.19174247166410316,-0.18443632652397043
-0.12844347788732682,-0.16223076090780908,-0.03378728302048223,0.14540889142243696,-0.046582412632319506,-0.09798726473214865,0.011549190315791198,-0.1171782640475637,-0.132685121942711,-0.1484505825832786,-0.16893070038965805,-0.1620007658679406
-0.08731733461582919,-0.14520993198811627,-0.05789259737228711,0.11628416243158526,-0.014697835589126983,-0.100948764308456,0.007440683219736214,-0.11163317723046878,-0.13374734188887769,-0.1540907738451938,-0.1788475121599689,-0.17158490658227082
-0.0911878581408416,-0.1829938940943242,-0.09180603595348262,0.137460772158084,0.0006308638757180874,-0.13675172169428398,-0.004166247768727227,-0.11510309062722775,-0.1472974148076094,-0.16552510847056712,-0.19987207451348005,-0.19425934520246319
-0.11040519779654266,-0.20763446156563098,-0.09722926376908834,0.15825720867565005,-0.006620818574598077,-0.15246731932503435,-0.013985049839123903,-0.11405473941993673,-0.15143823074221227,-0.16466715325885076,-0.20594250513717724,-0.19688334453482284
-0.18679692624475674,-0.23980616320262368,-0.05300923695786682,0.21341146150938278,-0.06699109027230875,-0.14572576601119086,-0.024794972126414225,-0.11311641612519903,-0.14990806718921412,-0.16289130030409943,-0.20811039533712752,-0.20000655200118556
-0.24869733725414467,-0.2734161737782472,-0.0247188365241025,0.26093029060349465,-0.11157093513711092,-0.14870833305814976,-0.028220345693864782,-0.11796135744384037,-0.153209294511152,-0.16610197757771936,-0.21103571793137413,-0.2061679661147463
-0.23262646949945043,-0.23710251365635748,-0.004476044156907114,0.23458955813287907,-0.1143950684782634,-0.12097461400351929,0.0008588478604097637,-0.09810401630209245,-0.13047858815845323,-0.14384955740023028,-0.18443082143277803,-0.17973894396686438
-0.24020558628385447,-0.19818688416810315,0.04201870211575128,0.21924721858638413,-0.14089490621184003,-0.07833856759543878,0.03847694463572121,-0.05478869142668524,-0.08543126832117905,-0.10307673267719658,-0.1481675984313662,-0.14385716614206276
-0.22997235689028325,-0.20508486800512496,0.024887488885158265,0.21816025710939826,-0.1273424376823257,-0.09008581109101746,0.044342833035811116,-0.049416964605623864,-0.08695055472778755,-0.10353620680821585,-0.15150588894298914,-0.1461142504299984
-0.1828542714697765,-0.20524094077218766,-0.022386669302411157,0.1946491233860688,-0.07956071097335546,-0.11313734927802052,0.03404588564693259,-0.06333171588868719,-0.10023688593349647,-0.12056201757894236,-0.17161438702182205,-0.164984904459539
-0.09723409636848032,-0.1695528778369316,-0.07231878146845128,0.13348387866739386,-0.012815694234717834,-0.1205998354497988,0.03541978246983622,-0.06284336431719313,-0.09785788074535497,-0.12312702104441335,-0.17376466757375938,-0.16973574591244653
-0.0632397300207517,-0.14333996619651623,-0.08010023617576449,0.10294333565325173,0.008649798134368454,-0.11248381110078486,0.029478782418733977,-0.050319677043968294,-0.09266848414758737,-0.11853207282222754,-0.17616363330679702,-0.17666001195742279
-0.16736376780760218,-0.2056676725112108,-0.03830390470360868,0.18604694705019348,-0.06442382680678269,-0.12170588989568036,0.025483802167259713,-0.044944056427131,-0.08783536454097886,-0.1189676591952467,-0.18199576841916223,-0.1866002290291076
-0.20843207293138685,-0.24179932076642383,-0.033367247835036924,0.22537311569663446,-0.08754896403265336,-0.136762989719365,0.03694915271816943,-0.047517290876334065,-0.0814952106200351,-0.11812381975490992,-0.18106561207628805,-0.1822540420085655
-0.1974729693211753,-0.21635178537349656,-0.018878816052321324,0.20644927143782918,-0.08935451848087225,-0.11743809333948428,0.05906507308815688,-0.025797529610402905,-0.060535823396752814,-0.0926748989067685,-0.1589770719867299,-0.15730502075967553
-0.19483671750608816,-0.18768733635659413,0.007149381149493997,0.19090283354726909,-0.1002087361763749,-0.09060560749817596,0.06917620680480153,-0.002380021101040306,-0.036562321990194345,-0.06522480641192996,-0.1439830150049433,-0.14366630866249072
-0.20243511740617412,-0.198764504294646,0.0036706131115281032,0.20135885614809346,-0.1028983696666424,-0.09706956536599569,0.0591021635878987,-0.00040480502717955336,-0.03553683484449328,-0.0726362592258778,-0.15103376871639076,-0.15336837612862253
-0.18802819987671074,-0.19906545965540845,-0.011037259778697753,0.1939053836256935,-0.0881091500085567,-0.10529701015024866,0.04785205412052563,-0.0038719953362259044,-0.04515100191293005,-0.07795437981851115,-0.1538917962127326,-0.1574044867504903
-0.1649568818265507,-0.16524676249711168,-0.00028988067056103786,0.16425847814447714,-0.08266519107596024,-0.08236103821094634,0.04701025301398999,-0.015211285220987433,-0.050084526465553586,-0.07350741757846717,-0.1540753413614965,-0.15423278068366622
-0.10556279720054687,-0.12203737976286978,-0.016474582562322915,0.11428578470727159,-0.044895926982840895,-0.06925357623575792,0.048901923847928165,-0.024537630682988087,-0.050539889519353294,-0.0701714998688698,-0.1507001798810927,-0.14952166837287076
-0.037575988166146566,-0.08753155381540016,-0.04995556564925361,0.06219981583577693,0.006599248242890794,-0.06871980175210073,0.050830173366916094,-0.01795565612794775,-0.041954654461893635,-0.05824432540732397,-0.13455310102441978,-0.13939913581115834
-0.021818198157101436,-0.08079423171434344,-0.05897603355724202,0.05092029427605745,0.018069072708565757,-0.069319015163276,0.056411139039869655,0.002973503186934979,-0.01998114764618996,-0.034895211558845146,-0.1182962026663227,-0.12082877423250246
-0.09335182697267598,-0.13018902421590767,-0.036837197243231715,0.11247803161820356,-0.02803581150866864,-0.08340130169620463,0.048510988668182806,0.014622668333506412,-0.01172900647308239,-0.029983644007524516,-0.1204006502628202,-0.12420372376789027
-0.1728259433287027,-0.1937328320885689,-0.020906888759866245,0.18396348355773912,-0.07567444625115734,-0.10708276563255203,0.050154797240542205,0.01007307944894272,-0.01650934620640019,-0.035098271587075534,-0.12144628468078252,-0.12824451908158405
-0.1736104067714991,-0.17835047251142772,-0.004740065739928615,0.1756254130004297,-0.08459463258072404,-0.09196527468255249,0.0636239813236279,0.015324621581897126,-0.012273607137937336,-0.025083108416013314,-0.11069666599909195,-0.11622394289957724
-0.13402933682487803,-0.14002644838150627,-0.005997111556628309,0.13724635559541726,-0.06422654648048895,-0.07285245041286106,0.06115084853987553,0.01475396548407574,-0.007064158623410281,-0.022888251783212472,-0.11283168504698536,-0.11831639002818528
-0.07392311175273603,-0.13146628186307166,-0.057543170110335655,0.10281696933830646,-0.008452839381968807,-0.09418723501730608,0.036720169049306944,0.0027118064269775724,-0.01884319863512626,-0.04238981335425963,-0.13861204360685594,-0.14385218670467215
-0.10154731319588839,-0.1435834063477135,-0.042036093151825146,0.12317661781367557,-0.030465292254249925,-0.09362629184067799,0.03568691563613209,-0.004443658933003525,-0.019905325034584493,-0.045493236853622374,-0.13853492123684122,-0.13751746445627847
-0.15895790895742082,-0.15691646320930713,0.0020414457481136863,0.15771416087294887,-0.08115334857124701,-0.07700663316990533,0.07256207905076416,0.02516421391625183,0.013194686893774014,-0.012497916775314082,-0.09804561971785423,-0.09585863060975128
-0.13595623517806,-0.1350041223712597,0.0009521128068003139,0.1346620524069542,-0.06878834007948692,-0.06667348496402715,0.09395471989053349,0.04377472261020309,0.03306762477615599,0.007803729324509778,-0.07366977112837184,-0.07115009093843419
-0.0326584965003731,-0.06474582713461366,-0.032087330634240546,0.04843998340274317,-0.00039355672888794315,-0.04849089032071908,0.09449904398000283,0.05307245992680042,0.043532093425548195,0.015398275884647343,-0.065477292934983,-0.060891749863253006
-0.03226560578640272,-0.08804036753937808,-0.05577476175297535,0.06022226272892936,0.011437486166433657,-0.07257895080510672,0.07649200482542455,0.05054331964897572,0.040940784271175444,0.010693986169448295,-0.07541436662267059,-0.07627152606311326
-0.06443924674185428,-0.13633427974842238,-0.07189503300656808,0.1003350644365155,0.004278325411159076,-0.10443231780008826,0.07671512169251749,0.030077724488197233,0.025383533310750748,0.0035344399870403448,-0.07773308624067744,-0.08074011002534284
-0.00950262697583816,-0.049108244854680974,-0.039605617878842835,0.029392339347578997,0.01526823808508782,-0.044501780947720865,0.10076764417238483,0.05307102925840654,0.05292284419548563,0.03501563470718627,-0.0442367564741632,-0.04864807992884314
0.007405112447286623,-0.012231394732399673,-0.0196365071796863,0.0027427583380153922,0.013198373364934275,-0.01683476418656036,0.09629159916868218,0.07123052415604332,0.0718633176328614,0.055488894239187764,-0.03517474230080089,-0.0377563645502164
0.010896877443984281,-0.04325759017368444,-0.05415446761766872,0.015427968643289797,0.032965674744731846,-0.04887132973609179,0.07703345118575837,0.06027067597429838,0.06542760965097949,0.05266709076638979,-0.03746628879013515,-0.04187970098691553
0.031104279835034776,-0.04401214107714808,-0.07511642091218285,0.006751712945068094,0.05233490044058268,-0.05983800845125415,0.06345584942726129,0.05907428403887601,0.0634965530061728,0.06064723074255345,-0.027864457447478744,-0.03557289601075989
0.04808961688776028,-0.014846276651684335,-0.06293589353944459,-0.015820507574381054,0.05493338011789684,-0.03964116440199084,0.06338420878551493,0.06786934740891465,0.07304140255082511,0.07051579398752346,-0.015988356285987954,-0.02120538898014638
0.03551784011363531,-0.017663138819601392,-0.05318097893323669,-0.009303214276854464,0.04453433013406698,-0.03597695629692411,0.05487381570228575,0.07284312260818887,0.0793718634380406,0.07403133032596919,-0.012060222735830203,-0.017662144237520477
0.021984972082670362,-0.05200161254344358,-0.07398658462611393,0.014370632768897043,0.048866359593205316,-0.06372307156183281,0.053379855262114306,0.07583659448924913,0.08046829779853852,0.08707289348786276,-0.005232844425432003,-0.009548983977509857
0.05190108921426385,-0.04246369890562862,-0.09436478811989246,-0.005419095328769416,0.07329151299097121,-0.06875212921089328,0.05225841691033184,0.07681157706907349,0.0844595234977042,0.09435974787675667,8.646406556794226e-05,-0.00482513023347775
0.046231959629739014,-0.03276301284113706,-0.07899497247087606,-0.007016729183670894,0.06289222574507039,-0.055735404083373866,0.030428976277773762,0.07001980616762281,0.07553500892449173,0.08733491538372208,-0.008754161092650476,-0.011601312875080642
0.04711954888012615,-0.021651733313220914,-0.06877128219334706,-0.012892578080938213,0.05866555703151577,-0.04555803053341447,0.039199278907288325,0.07950788722110787,0.08165379467701529,0.09898407704822969,0.0030933203634940587,0.00016832366980365076
0.08251547938294589,0.012030492027698287,-0.07048498735524761,-0.0475119236164693,0.07646342508201608,-0.029954139184973496,0.061428335912760125,0.11130012926687084,0.11607216498813183,0.13126516783664305,0.03481207622748705,0.029662024044853436
0.06808935858915757,0.0017747471540851662,-0.06631461143507238,-0.03450343580348674,0.06783362572322374,-0.03201974665765601,0.051138301931934166,0.12341845136423785,0.12186002692760876,0.13803607501709786,0.03777820899304583,0.028492014640384006
0.039859489429981916,-0.015508713326444695,-0.05536820275642661,-0.011563190948785764,0.04828810593648596,-0.03458790648582244,0.03972702741693547,0.11244996744642034,0.11422446679282246,0.12699266001260168,0.03076578039121402,0.021334628941371264
0.03947060810120837,0.0017000195717975285,-0.03777058852941084,-0.01985672247674201,0.03897561399772244,-0.01789227647051066,0.04513341482095111,0.12003643676281371,0.12777144957518669,0.14010863050421982,0.04206913934445103,0.03879377899884649
0.02938884355149363,-0.006322067307267426,-0.03571091085876105,-0.011246111548981981,0.03240118583370948,-0.020677970626321724,0.04446188130482113,0.12216837467110478,0.12992964494569972,0.1401338259543528,0.043778520193253505,0.0404124848429315
0.009580802537338126,-0.021743707821395255,-0.03132451035873338,0.006056298772942072,0.02076548661321994,-0.02612270729847599,0.03081756755392229,0.10605352879078107,0.11538828588992145,0.12599227430801374,0.03640098776707936,0.027477048535722578
0.030625497816122806,-0.011798625388938083,-0.04242412320506089,-0.010107649784807094,0.03730629802472212,-0.02786897561553876,0.027136865503259073,0.09066485619252006,0.10393343300211244,0.11948686293461278,0.03368234933935138,0.025742464577669915
0.07316931246854541,0.02485315188463983,-0.04831616058390557,-0.04865867582325014,0.06037637605436188,-0.012339394762101451,0.02844958973868996,0.09370530363391141,0.1081396311230662,0.11854799441506057,0.0370342540956363,0.027382040625569197
0.04437278679401209,0.0034536208065993326,-0.04091916598741275,-0.023458388322057246,0.04261697530951687,-0.0185223174055446,0.009120432032063837,0.0804976127610765,0.09063822538329636,0.09533415322161165,0.01699133033940299,0.012233910724115024
0.055184770104553964,0.011074060541639988,-0.044110709562913984,-0.03396526290909018,0.04898567449200165,-0.01568572715548947,0.013322328217897804,0.06183440792910928,0.07891938529575449,0.08439775552247093,0.010197186044684928,0.017018588111962548
0.13503301438413284,0.0635328372431167,-0.07150017714101613,-0.0989123702744235,0.10334676454785889,-0.0037483048366548457,0.014383086703857349,0.0656918682868195,0.0837077908373827,0.09040330575902379,0.013129262712965087,0.019005345584040306
0.10984731603578264,0.07144751450966921,-0.038399801526113435,-0.0905524391473328,0.07333038352759452,0.016492223082821122,0.023477495962641686,0.08135426723231862,0.09885554373797463,0.10338205910803965,0.02763284124344679,0.028041146603957803
0.04042287660177478,0.0689062432900582,0.028483366688283426,-0.054313781157541464,0.006433561970891851,0.04866451553023719,0.041413504674965955,0.10651642506934926,0.12129359589683349,0.12402599671643307,0.05009605867649286,0.05244764039237834
0.008517517432444366,0.05600585902348296,0.04748834159103858,-0.03305261961710684,-0.01984599898782355,0.05197995951803278,0.051373375790298784,0.11106602877478276,0.12927260107844993,0.1257575987698455,0.059826833926217925,0.06026663121322096
-0.004599306956084556,0.033118626352549585,0.03771793330863415,-0.01390061201581969,-0.020879834227204748,0.036256046673138566,0.05713550664682822,0.10346568589227961,0.12219870234919013,0.11864317848421638,0.05597304228569312,0.06014637343751609
0.019984253995450917,0.008154220127656577,-0.01183003386779433,-0.014006650051551325,0.01634423819936093,-0.0022814743023130504,0.046319951896461146,0.08093004299281949,0.09867865316698188,0.09588044877126799,0.03749900165958737,0.041898683488451764
0.03002735690980908,0.006146797692379362,-0.02388055921742972,-0.0181124859214685,0.02638307524540078,-0.008629453306344646,0.03750216295735474,0.0680290678412414,0.08582545664947668,0.08301858074934056,0.0239015491916636,0.029333441155411845
-0.019631995397422167,-0.006332647659059928,0.013299347738362232,0.013002270294100953,-0.015506202724728671,0.003634037773367178,0.04779394725051791,0.07355033705708017,0.09216153080688455,0.08900881002599702,0.031464317470343194,0.03633368902704043
-0.012237396952355054,-0.0077946429864269385,0.004442753965928113,0.010023901691738848,-0.008251164372977461,-0.001996399513487183,0.047556522873616405,0.0644061820877585,0.08475739778854989,0.08274544210076804,0.03680062807102314,0.03821550201772509
0.03409928555231915,0.004471107315645382,-0.029628178236673765,-0.0188519696948118,0.03223536949833467,-0.012738482356176667,0.03934137536213809,0.04954783026498205,0.07039717079491742,0.06937405329962135,0.023537757778149402,0.028096060148237813
-0.005103750650839601,-0.00019723478606749816,0.0049065158647721,0.002380116769589242,-0.005222442888899093,0.0021047926230420167,0.026568161887112505,0.038876975012070644,0.05650554843184049,0.054093221363672124,0.009514509935352786,0.018860000403650334
0.020309073545424827,0.005089483596180637,-0.015219589949244192,-0.012159668447374858,0.017600131452011218,-0.004627738713149857,0.017607182426481415,0.021007597528841154,0.03660843104085522,0.03603662179841206,-3.6841440079436795e-05,0.009043674631792304
0.06000114788469128,0.007329683810268294,-0.05267146407442299,-0.033451215904408575,0.05664230915477362,-0.02289669003940749,0.011329516422232613,0.015011480440324108,0.027883639349423915,0.022885227106710725,-0.0092842575469084,-0.0026950693499890105
0.029220761137082815,-0.006510229505767069,-0.03573099064284988,-0.011011437552049537,0.03328824415141143,-0.020719388847346615,0.015320073669605161,0.015522717990783677,0.03340813919848305,0.027495003430748694,-0.008335819832227684,-0.006333319659819653
0.0345045090616595,0.005935468266984584,-0.02856904079467491,-0.020485697742725496,0.03109355951304705,-0.010690819126605387,0.03140544698124276,0.028092036049089244,0.05107639664968095,0.04117930310396394,0.004824518496493555,0.0027158113013372866
0.07443336292770754,0.008347310810159407,-0.06608605211754813,-0.04120137098698606,0.07054515627342725,-0.0281786808859865,0.017488060064792976,0.016932112969222115,0.035752046413712366,0.02499699072362089,-0.010191893023450922,-0.008437438677003323
0.0792913505738683,0.0005881122117790161,-0.07870323836208928,-0.03999413911667992,0.07904005857183052,-0.03873811118831892,0.013338042581192623,0.006150035053373307,0.02640597528265402,0.018338195709758327,-0.01764623739511927,-0.010442812876653072
0.0263338160292673,0.009568029761597853,-0.01676578626766945,-0.01827860388548146,0.02162545166288976,-0.004323654804259725,0.03334446739206247,0.022140919216709402,0.04552330637098311,0.04106407612473148,0.0005319613789134128,0.006471531394877477
-0.024422279163349943,0.0171447756634734,0.041567054826823345,0.0035441112753070445,-0.033379806684329535,0.029394594472219884,0.05684122588058583,0.03874922954904954,0.06861092884036302,0.06574697446083794,0.022228944014874255,0.029568388927516183
-0.02719687511131781,0.03239397177665722,0.059590846887975016,-0.0023046515413572017,-0.043149999520467344,0.04596390800917221,0.05859207733323231,0.046123314620745225,0.07348482143789317,0.07059109368745842,0.029555931511969922,0.037239738416210276
-0.028630570841352242,0.0173157367218301,0.04594630756318233,0.0056406189185563855,-0.037208302551609035,0.03100545603941718,0.04459738838633706,0.03804204945446962,0.06258479689681352,0.05846700574536246,0.018038981856323313,0.027530611241568224
0.0008702206538915427,0.018912085702453053,0.01804186504856151,-0.009962656607031556,-0.008552386882934063,0.017843405321020994,0.03848668700163376,0.028593676558163337,0.05354316043790502,0.05058422636097048,0.009976515301034213,0.021553197729156235
0.024064274157586614,0.022402236416850265,-0.0016620377407363498,-0.02350352850899063,0.012533902611042452,0.01035054281912643,0.036449146940309686,0.030203958737630668,0.053481857520428645,0.051072697429563114,0.010325446622684207,0.014923775564696476
0.02425169163028888,0.022550701854117047,-0.0017009897761718353,-0.023587970474057487,0.01250787795566995,0.010452075391031193,0.04055993721533401,0.03402498147447055,0.053492557938478597,0.054895541009759144,0.008931564869888782,0.012347861292659489
-0.027079887011812343,0.010345346296812974,0.037425233308625315,0.008194510548095274,-0.03140098289183748,0.023809131963604523,0.03856874979201467,0.035284591629562476,0.05329761100317969,0.048775325329447256,0.003018469264243741,0.00925921447944096
-0.06823206224423467,-0.0006884970580828419,0.06754356518615183,0.03460005436283735,-0.06827104820262993,0.03308785738584132,0.0443252972620889,0.02867749749576664,0.05378150565029616,0.04285027782801952,0.007472963647057291,0.013392356691626492
-0.042754439968786,0.003771377960589,0.046525817929375005,0.01933717512569125,-0.04471351088254116,0.0258860444717094,0.038504068902537866,0.022803702056609067,0.050936129517805705,0.038286776410168956,0.00488055577895221,0.006468583844365732
-0.028300355547522433,-0.011729290467627997,0.016571065079894427,0.019772908786719695,-0.022182451303402094,0.0023263298867210775,0.03176146763969852,0.01760753055397696,0.046283868999953744,0.0376615364073364,0.0022545566218560254,0.00028659016398846027
-0.03181418934895066,-0.04545308655313247,-0.01363889720418182,0.038636664171682586,-0.00888033737300502,-0.028805768038983864,0.018614182912057704,0.007570741475933996,0.03595292577547003,0.023149271264396008,-0.00770592483787107,-0.013424924996409463
-0.10225690273578429,-0.10260407438252807,-0.000347171646743782,0.10314973201749675,-0.05076920742805721,-0.051190494950237315,-0.0038103584195314,-0.009584063010498585,0.01360402384046288,0.003130994849590986,-0.03299013536009585,-0.03346610916775509
-0.07967442154053718,-0.11290324368068272,-0.033228822140145546,0.09594410182223494,-0.022958932590052217,-0.07376239499036136,-0.010089577578132133,-0.02564191691428667,-0.002822769102013498,-0.010852236520606422,-0.046019543428774866,-0.04093320701848019
-0.014375088015116536,-0.042767120773636494,-0.02839203275851996,0.028561237037839606,0.007729968387326271,-0.0355678769087473,0.01609257277632305,-0.0070926004371993055,0.01649822213883541,0.0054578778308490014,-0.02292673460533697,-0.016731746777638293
0.005752995697507878,0.0210560702121451,0.015303074514637225,-0.013497901688789372,-0.004786147636291188,0.017554759611009475,0.06487817269621837,0.0372896792498203,0.0627779354882672,0.05296318588914152,0.01958104017394944,0.02531381908637858
0.03695196280702471,0.04340724208623768,0.006455279279212975,-0.040405491333414846,0.015653187492167518,0.024243343115430152,0.07186068336672466,0.055725116180338846,0.08174100416760366,0.06847654114247906,0.02725417388038996,0.029577940005520845
0.04223844967376901,0.040957911620710774,-0.001280538053058227,-0.04124475218275774,0.020918789730928162,0.019480148414359327,0.06927021062013004,0.04653052694198578,0.07595673121941077,0.06084306744500302,0.02018049306169531,0.022560734373393107
0.053387420522860184,0.04820704192182155,-0.005180378601038647,-0.05127229535762034,0.02969958535353776,0.021660209168046188,0.0695316888819731,0.04079253505357543,0.0687454263637837,0.05607017234812802,0.01830907857607793,0.025281949246829746
0.02811330968977592,0.025562610907347513,-0.002550698782428389,-0.026637465503162136,0.015130542662211787,0.01180504580135419,0.0586972727472623,0.03281925413581284,0.0606920770798847,0.04759744819257665,0.011643522883878068,0.014915422949685718
0.06514509721315008,0.045528937458619315,-0.019616159754530745,-0.055483643126152074,0.041522629649589506,0.012822722201937456,0.06393637212102453,0.02848324168303517,0.05837939744224171,0.043879914935845435,0.012736183284647816,0.01662006229120819
0.09699345794539557,0.06958608314121108,-0.027407374804184502,-0.08312316679034251,0.06264725552135599,0.02077739693945163,0.062440338133640874,0.04250762604667205,0.071445154261381,0.05369963755043958,0.012985434420529497,0.02278041509083094
0.06115922107773516,0.0472438245660364,-0.013915396511698734,-0.05458467958369787,0.037908972608946906,0.016753978592563314,0.05868211416966722,0.04046749520842331,0.06824838369850549,0.05046125836550602,0.00812153411981612,0.016491663079555796
0.05477310941226602,0.03719571048388177,-0.017577398928384242,-0.04661830818298007,0.0354281340258452,0.010358052323539242,0.06365554575044549,0.03619059176657017,0.07154529999724107,0.0514577158038259,0.011846291104745013,0.01439336412435269
0.021181171220889146,0.018506235314426325,-0.002674935906462817,-0.020543438102756186,0.012000146183486615,0.008014087662166597,0.056899297975210116,0.027210042891858372,0.06506928756896489,0.046653232607806475,0.007755411694966878,0.007640198920179001
-0.016818616039037556,-0.007977257298218675,0.008841358740818876,0.012740485621849986,-0.012908047832279909,0.0007299634987652058,0.053202237375369055,0.0274259038731395,0.060952555941996334,0.047938953475170444,0.009731047376944645,0.00535519082603247
-0.08404442398763358,-0.05628589496895403,0.027758529018679534,0.07001872292004367,-0.055633826164790665,-0.014975009473941325,0.05695463952202259,0.043523116381225906,0.07431207549500812,0.060698627819383795,0.015315332686908262,0.011238748964426058
-0.11544733200046055,-0.08620895028518767,0.029238381715272876,0.10056989451036585,-0.07214855436039971,-0.029083548286160398,0.06348081500901964,0.0551444085668009,0.08069212297137221,0.06507728895046054,0.017633250603750813,0.01848224030556845
-0.0831385932748732,-0.06910372189432272,0.014034871380550474,0.07658068508283922,-0.04900347699878518,-0.028191571231474935,0.058598839585339284,0.046277253486431136,0.07370776026021131,0.058015135423112985,0.010379359685746197,0.01023097716797287
-0.03839852709367547,-0.030360931646148934,0.008037595447526535,0.03431517054158521,-0.02380455193886531,-0.011156229585254928,0.058131513982826816,0.045509690189977296,0.073507317773688,0.052767758685207534,0.005739117511981164,0.004216670026589641
-0.006970703508995541,-0.0034849858450415874,0.0034857176639539553,0.006027780629539073,-0.006019055556919642,-0.000638328152359964,0.06693353648887665,0.05313720695411784,0.08328240640946127,0.05840317155985092,0.010001571026038493,0.009685221859437747
0.040126082526503945,0.014565536567528016,-0.02556054595897591,-0.02718715749749832,0.03269375317529789,-0.006136198757540096,0.08078397120063162,0.06058410326818901,0.09585253867963156,0.06970603484860236,0.019997721890119446,0.021547588497297012
0.06763571405869159,0.03209212953615737,-0.03554358452253422,-0.049488029782230415,0.05119303378530309,-0.0023506149856076792,0.08487525205710372,0.06554314001081712,0.09416294186958067,0.07117257455723561,0.013032703064855157,0.014771342512671422
0.06401133766453466,0.04713265987469865,-0.016878677789835997,-0.0552380208602282,0.04078546348949388,0.015101495912371612,0.09152120524817017,0.06550415708363279,0.09737193140889461,0.06779774769984065,0.00903650117312536,0.013795857507830061
0.008861845375158585,0.04146552745195089,0.032603682076792304,-0.025567729793877482,-0.012165631248197764,0.03706483030951438,0.1121920306853389,0.08824233506704655,0.1174094439378487,0.0784042892654712,0.017742479927601806,0.017074384444733085
-0.04729498089077538,-0.03213164541550928,0.015163335475266087,0.04023585745494306,-0.030989509070725844,-0.008563474107419531,0.10439262025548797,0.09555877419800898,0.11081770998567946,0.0677207670858747,-0.008621908553026105,-0.015216451428736816
-0.0568514628459805,-0.11042034725723691,-0.05356888441125639,0.08277603866511327,-0.0017976963867414055,-0.08169815553167384,0.08944338012517883,0.09324061388404883,0.1013447876999427,0.04725320472529185,-0.04063662669994433,-0.051511879153542627
0.005992206432998397,-0.055592927794690404,-0.061585134227688805,0.02498801779225122,0.03300794712554162,-0.05848991444233496,0.1299405848425708,0.15610533629678974,0.16229074055278933,0.1054332763236049,-0.00019081000675418656,-0.0212604005306198
0.1228063782731149,0.06417107107210072,-0.05863530720101416,-0.09432256581349525,0.09074915858054805,0.002685787135504894,0.17769565403650686,0.28203736488909226,0.28253888528180743,0.23503657086226826,0.08829049080834585,0.05288594825990197
0.20930344695090636,0.13006397673417322,-0.07923947021673322,-0.1698496969099306,0.14388243336187798,0.02613207241916696,0.19693969961838229,0.42915122782459497,0.4110375371151316,0.38230549782618617,0.1776517731432936,0.12392960576005674
0.3049068917210004,0.14289698114595029,-0.16200991057505004,-0.223557151049352,0.2335920335363166,-0.009870073615850355,0.20563106910901846,0.6035351658757632,0.5539384821206758,0.5408008158955901,0.26298107579620833,0.18484750007128337
0.43915973473232284,0.14643888121549406,-0.29272085351682864,-0.2928571515821791,0.365854331496516,-0.07388480001177929,0.2290899724424224,0.8115970533621815,0.7259945943034973,0.732596490745885,0.37645298663530635,0.27567658362977376
0.6254033867488504,0.20461563315213296,-0.4207877535967174,-0.4150447367904597,0.5238092994734399,-0.10799786019457165,0.2366096976272892,0.9695154273373027,0.87590475396714,0.9260794348881162,0.5051527488023653,0.3856426308327413
0.8575947515088606,0.3029790874358785,-0.5546156640729818,-0.5799660665253257,0.7058271433679222,-0.12658353977200534,0.19195433190573816,1.0314506858591732,0.9659488986855979,1.0787892979584421,0.6190606186594351,0.4950311445230957
0.9681896062148015,0.3967280709701855,-0.5714615352446162,-0.6819646896499999,0.7696404674043997,-0.08698923055734248,0.13811270778641693,1.0114225303702562,0.9950507283200638,1.184966028562631,0.719288514145349,0.6023675103285162
1.0251086997147796,0.4777485613835502,-0.5473601383312294,-0.7523211277796821,0.7866473374443398,-0.035000752783386775,0.0834607596226237,0.9198736386684913,0.9582139310166937,1.2303061584363408,0.7858887221217359,0.679980043268047
1.0542913568653212,0.5073627706372007,-0.5469285862281202,-0.7809844051086532,0.8010170044590341,-0.020635085275543127,0.009235178577297568,0.8026768417296787,0.8893394758992426,1.2282837386486432,0.8270605188676892,0.7285265342026527
1.054013606750466,0.5197366927175889,-0.5342769140328762,-0.7871391087157232,0.7933548624512633,-0.006875056921949341,-0.07212097445473238,0.652622028345922,0.7769495139901729,1.172724375435241,0.8367675410077209,0.7599892954219608
1.0164106128983805,0.5172535333349997,-0.4991570795633811,-0.7669455138653641,0.757916592692168,0.009682863313799635,-0.15702816415925386,0.4401378792737836,0.5959729300478136,1.0273725905415019,0.7897402133759598,0.7517230697888143
0.9680024018213566,0.5197390402218796,-0.448263361599477,-0.7444148006426399,0.7073318201998119,0.03641336610115856,-0.2585411611406796,0.15490199760069934,0.3475710747618544,0.7954708565923583,0.6893142289351486,0.6982873877460795
0.8761705223584653,0.5552402308338609,-0.3209302915246044,-0.7164314180309852,0.5983524631828049,0.11750214099059594,-0.35194581719256013,-0.1425895257221085,0.08956532940921015,0.5284171483698834,0.5758450930106703,0.628896168748856
0.6217484253847235,0.5681261206756821,-0.05362230470904114,-0.5952555795247081,0.3380351687106111,0.25646610480594406,-0.41033549393679586,-0.4120703238630179,-0.13576941363354772,0.26329489673657913,0.48178064754321115,0.5742165825977478
0.33361083395021723,0.5669267242711884,0.23331589032097116,-0.45015307311982955,0.05026096489387415,0.3998091508696718,-0.44410274609239514,-0.6689415460520008,-0.36041308856565035,-0.017281843184478677,0.3699153330986279,0.5048002189410421
0.09041396155677708,0.5644130288115279,0.47399906725475077,-0.3268823197674645,-0.19086567579096061,0.5199641717060969,-0.4195394716159515,-0.8497965051337606,-0.5366152344213084,-0.2718385040970476,0.26059890323589874,0.43110137559484957
-0.01961438984335947,0.5608231781927008,0.58043756803606,-0.2704571562940731,-0.2999194404872652,0.570292320427654,-0.38966045164403357,-0.9409357819672786,-0.6525589028717337,-0.462168132050826,0.17014789840759142,0.36371299022720494
-0.06209661404783374,0.5341565776693377,0.5962531917171715,-0.23580324345570666,-0.32880920388979357,0.5651216518720641,-0.4047521985016851,-0.9626579376771192,-0.7102410884271932,-0.5652849646424991,0.11099879084844301,0.3100911983966465
-0.0632691229203301,0.510857682994171,0.5741268059145007,-0.22419155344827474,-0.3182882369770553,0.541904503154546,-0.4277700770129326,-0.9318887659012433,-0.7160457257386866,-0.6048153178284027,0.07549579860675504,0.26605449621029054
-0.0570036652319974,0.44237991459314524,0.49938357982514286,-0.19191542666072414,-0.27834519321592593,0.4708190000706943,-0.45556590485991383,-0.8804734511860084,-0.703521898216181,-0.6310408979565215,0.026790778179933052,0.19580432925437874
-0.06357835580548755,0.36732739171848755,0.43090574752397515,-0.15133641175514428,-0.24758979259677596,0.39873512067101524,-0.4711285316891228,-0.8204085321987843,-0.6749947110096916,-0.6307199791981479,-0.008115328114396967,0.1346091142427133
-0.06034223619892286,0.31330193703857717,0.3736441732375001,-0.1257591194335707,-0.2167738324477201,0.34367432848284235,-0.4668363884497617,-0.7294848524684229,-0.6197498850457192,-0.59552344464059,-0.033610490708389736,0.08581118696086795
-0.10746352540090183,0.2626891125024096,0.3701526379033114,-0.07771079686190369,-0.23930962806678152,0.3166055584941308,-0.42865941688734543,-0.6271266641486826,-0.5408744895259016,-0.5441366031837551,-0.04351837409519681,0.05640708690637915
-0.12369305756735627,0.222115905750395,0.3458089633177512,-0.04842542973652688,-0.23498684136654885,0.2835830414589602,-0.3857320144996325,-0.5350342678746703,-0.47444367517333197,-0.4961362685501863,-0.05418999077770505,0.030340948172151702
-0.052662386441085604,0.21902229541766338,0.2716846818587489,-0.08297003725201534,-0.16187017952299218,0.24608935823273226,-0.32966830078911996,-0.4500894644363481,-0.4050661499400048,-0.4432321954124622,-0.04353186611786355,0.026555179961863747
0.010002680857202437,0.2595557834112408,0.24955310255403837,-0.13514772209899162,-0.12014723851998778,0.2551364819945282,-0.26791405924442446,-0.35254947241374723,-0.31668725799597697,-0.371558217618617,-0.01665094906642904,0.04024906484191792
-0.026614243744077223,0.2205426613349298,0.24715690507900703,-0.0968733510887315,-0.13705011316915744,0.23430334139959366,-0.2541683710427519,-0.29945775291752685,-0.27453463115201454,-0.33887023810806294,-0.03303350206808371,0.009474877129230603
-0.10760327980037629,0.10220366229107154,0.20980694209144785,0.0033364692340663235,-0.15948833595019712,0.1550774799082099,-0.24751280951837,-0.2823047804739289,-0.26565914996607853,-0.3295115218008111,-0.06206825355060541,-0.02561381140770362
-0.12147373940729596,0.045658327617151676,0.1671320670244476,0.038290546494231276,-0.14488939388413613,0.1063089501508185,-0.20493107980084715,-0.24597745878095548,-0.23352135213222167,-0.3022032197361467,-0.06607701971993499,-0.03414562953647792
-0.10198700124939705,0.06150931986207213,0.16349632111146917,0.020078518052932662,-0.13316602581766626,0.11206943361915295,-0.15208914150084873,-0.19651370307567365,-0.18609916852663128,-0.264814712819968,-0.0577449366180458,-0.034521376461109386
-0.07860499556322091,0.05199431134210356,0.13059930690532448,0.013632087218554556,-0.10376122020210331,0.09164165017677314,-0.12015637721144384,-0.16101299081016168,-0.15349680271801772,-0.23985411105940962,-0.06691142775985802,-0.048893781614774035
-0.0826619585799272,0.0061335906198725495,0.0887955491997997,0.03904468328152778,-0.08612050352794999,0.04717805474379855,-0.09862585285872062,-0.14273176472221716,-0.14385295389006317,-0.23322273730295018,-0.08944530662018318,-0.07799365320980178
-0.11255205410475087,-0.022162534713319654,0.09038951939143125,0.06761115618213535,-0.10150109242755488,0.03431241581466739,-0.07263195628729338,-0.1295081440863588,-0.12858693782187103,-0.21982646744928416,-0.1006782055586466,-0.0982416737436146
-0.1414450164822928,-0.04455780477932205,0.09688721170297072,0.09255525347691118,-0.11980201466842282,0.026702572275766473,-0.04861327625736888,-0.1197991670502345,-0.1164784013552221,-0.20592667042921703,-0.10536632716011174,-0.10626889863491013
-0.10272463424553535,-0.03492436611387555,0.0678002681316598,0.06905880278055646,-0.08586728698887548,0.016150491815230296,-0.017087772202301024,-0.10595784023954974,-0.10028125420828005,-0.18666599883230126,-0.09843286933725756,-0.0986761360854361
-0.08928712222071357,-0.0247162353082812,0.06457088691243237,0.05719796288875007,-0.07761211163191506,0.01974718407760252,-0.006557516621736211,-0.0829384885901681,-0.07978829684825356,-0.1657855969587429,-0.09259486058214121,-0.09360504235382716
-0.1500468734808761,-0.0640717230795641,0.08597515040131205,0.10729156784184213,-0.11855145367337912,0.01073068157443402,-0.014428705100000097,-0.09197849288368018,-0.08714445490603293,-0.16551238509273372,-0.10353458196064566,-0.10833592248224418
-0.18499988196168976,-0.0979155669602704,0.08708431500141933,0.1416280785884558,-0.13620860737737556,-0.00628552877983627,-0.026985402841630122,-0.11359577824913168,-0.10163351451586054,-0.17448055465921383,-0.12380284745635778,-0.12243758334313685
-0.1632981948086543,-0.09498808161762853,0.06831011319102577,0.12898810127222998,-0.11596946251963809,-0.012866164864012574,-0.026504946617423298,-0.122044279892685,-0.10868548701680325,-0.18242641993427766,-0.14020651545405027,-0.1349630594817153
-0.1382674250458249,-0.0823363799841117,0.05593104506171324,0.11051870567924788,-0.0968262102003278,-0.013521364011439121,-0.009736885162544581,-0.10653852686239763,-0.08903697077300475,-0.16234984740139657,-0.1323237101838027,-0.13024218823461445
-0.13515847894305055,-0.08341352147210908,0.05174495747094145,0.1087850001864974,-0.09318317948979159,-0.016492090470255252,-0.004001800956104758,-0.09975875737077218,-0.08162241954130782,-0.15353129074076133,-0.12842420268680027,-0.13147089361630176
-0.12493313308726747,-0.11715753469988852,0.007775598387378944,0.12080983186684524,-0.06588450559743185,-0.05542192547006267,-0.02426642663570387,-0.11680006165726872,-0.09347903756322748,-0.16309620001725408,-0.14336225838447497,-0.15099901828051582
-0.07708122418193987,-0.13319723433077238,-0.056116010148832524,0.10546057755777717,-0.01065806071658806,-0.09425800516128062,-0.04467234768995245,-0.14061694944912456,-0.1153546841408261,-0.17906281709976754,-0.16335067993612218,-0.16988124228991744
-0.0711839691105626,-0.13039928233874684,-0.05921531322818427,0.10039535741559091,-0.006510148500277959,-0.09446899903763466,-0.04178930151909161,-0.14590774229122339,-0.11627183214869173,-0.18127485267176086,-0.16172599085778422,-0.16451034363704606
-0.14533924223443545,-0.1423234732066163,0.0030157690278191014,0.14371753616142235,-0.07425342204884156,-0.07012606697509752,-0.013878507584593254,-0.12573842745139654,-0.0900403460071285,-0.1580365172251386,-0.13863548630121797,-0.13892364815652938
-0.18944337674556727,-0.14631353119301646,0.04312984555255085,0.16765455757496878,-0.11685502442462327,-0.051418616229167234,0.0035962200440449983,-0.11299134345456877,-0.07088830563234269,-0.1389827457274413,-0.12174390315942292,-0.12185756499811681
-0.1705631687942237,-0.14140807977669614,0.029155089017527527,0.15553480356236835,-0.09992292010922361,-0.056249585886928924,0.009452398730854952,-0.10865498420824211,-0.06882633058720608,-0.1324851157858632,-0.11526920893150688,-0.11272375258929952
-0.1721401305965294,-0.11935041592681554,0.05278971466971388,0.14555332242510285,-0.11238673705677528,-0.03254236321977901,0.018604281671976395,-0.0948037297607018,-0.055922299519119964,-0.11943825484523975,-0.10919058410081067,-0.10896491733407342
-0.18410830994430752,-0.1186440765077552,0.06546423343655232,0.15182338873811993,-0.12554317682367463,-0.026898603100957482,0.011299338917330051,-0.1026369081535611,-0.05869890927598747,-0.12169960547078607,-0.12048365573500933,-0.11596693970267218
-0.20730175193875638,-0.13252351195959902,0.07477823997915739,0.17026659524974547,-0.14129855990428528,-0.029660830703597874,0.008256101853243835,-0.11073940673263753,-0.06602898270029696,-0.13170217724090794,-0.12903179534162848,-0.12841829031331775
-0.1932631253625511,-0.13859814418980748,0.054664981172743606,0.16603817992357006,-0.12397006674801223,-0.042246835331294856,0.007109949882791369,-0.11725055024841705,-0.07205192834474136,-0.1351099024453589,-0.13331878395988886,-0.132019076175559
-0.15289898438644214,-0.14229063132680314,0.01060835305963902,0.1479156477107757,-0.0816422642027887,-0.06516484069393376,0.003194345993563664,-0.11666972929753207,-0.07343077500798882,-0.12926286401672024,-0.13895584938688196,-0.13893644957396908
-0.13746041217199742,-0.144699482364582,-0.007239070192584477,0.14052902919000448,-0.0655303236069469,-0.07535491988936281,0.001160574666278728,-0.12389817690808674,-0.08167760366841668,-0.13792904697828565,-0.14272751229499728,-0.14649520148647927
-0.1259943198174302,-0.13079891000847224,-0.00480459019104201,0.1281835696343964,-0.060924318880258066,-0.06719054665242924,0.0064082376754872935,-0.12212727003050475,-0.07320977063565583,-0.13413015513247153,-0.13734639973932317,-0.13895626587188648
-0.13635990488284927,-0.13422640535772484,0.0021334995251244358,0.1349864944268247,-0.06879920766076043,-0.0659986208089883,0.015531412573336872,-0.10922201463205033,-0.05951924374451896,-0.12284731772385327,-0.12867329722987866,-0.12457482555391292
-0.13581907121206033,-0.13646796159484673,-0.0006488903827863666,0.13633347793133963,-0.06774030058338557,-0.06821067081669611,0.013720856771971417,-0.10898084301207416,-0.0658189180133477,-0.12424108771657215,-0.1341907508965507,-0.12917894699913346
-0.12862208425978097,-0.13003565461587444,-0.0014135703560934198,0.13011708695240518,-0.06352344193917561,-0.06586535112178399,0.009622635979601444,-0.1257712529674748,-0.08030470588917903,-0.13931568499640964,-0.14902453152058837,-0.13969377389363627
-0.09851911743009259,-0.1048951768715994,-0.0063760594415067885,0.10225315288076964,-0.046743601736145834,-0.05615131984143836,0.018749916108045266,-0.12518433709387664,-0.07613655985175402,-0.1370514353164405,-0.14384094831659827,-0.13454539159350393
-0.11814213228521452,-0.09217684335970608,0.0259652889255084,0.10521548429707317,-0.07205848036979404,-0.03390283742219058,0.033894871464321706,-0.11143246500369516,-0.06065508931654174,-0.12155226183658446,-0.13518624547326605,-0.12165444450369853
-0.10591493834819352,-0.07295045169903251,0.03296448664916099,0.08942017206673453,-0.06922034042876993,-0.020200731547549516,0.03788480102530257,-0.10741500111650784,-0.05698077620770879,-0.11760482094493845,-0.1309487503192682,-0.11659023792569151
-0.0943935334894805,-0.0944325915241797,-3.9058034699235473e-05,0.09422396719092227,-0.0469470841925561,-0.04688569134263492,0.016492214868641258,-0.11909034345938005,-0.0660996844263268,-0.12931159188893943,-0.14665085515885945,-0.13479258885196196
-0.15640578743084665,-0.1533817768219094,0.0030240106089372246,0.1539952112566003,-0.0795493509572228,-0.07570168138874121,0.0011052982821486387,-0.13795857722201998,-0.08122252670975917,-0.14771984251134648,-0.16547861681527992,-0.15359122693843003
-0.17049833309907667,-0.1529600318483164,0.01753830125076031,0.16225631086578104,-0.09373471482694169,-0.06678959707880536,0.01785809639265816,-0.13381541346432627,-0.07605041083897726,-0.1393510919475322,-0.15176641483973846,-0.14435262600081214
-0.14380207418466198,-0.12277868345298408,0.021023390731677912,0.13352889518421124,-0.08171167080456353,-0.05077054925499461,0.02841347807601915,-0.12495817724259137,-0.06973749619150374,-0.1301787577593241,-0.14061341552331105,-0.13348301611532878
-0.1236412453451876,-0.10799265503619779,0.015648590308989827,0.11548986318007351,-0.06901667723699446,-0.046451724641713626,0.026090884074148783,-0.1325094556627691,-0.07296042167823727,-0.13545594280839618,-0.1435670741415387,-0.13655023213765416
-0.08577935574035389,-0.09254719407205869,-0.006767838331704783,0.0889783079516897,-0.03892986835121013,-0.049866096239770195,0.031307338739725556,-0.13343313668875817,-0.07232342386396888,-0.13128445597603067,-0.14299398387931705,-0.13578339571396142
-0.08317067841872539,-0.10336436391947569,-0.020193685500750284,0.09250162449995812,-0.030726424446927407,-0.06259111807573801,0.02567047612651705,-0.12791467904371615,-0.06807291282967001,-0.13352445178653688,-0.15345102352035836,-0.14658793768372144
-0.1736443984166935,-0.20638169953242458,-0.03273730111573103,0.18942480680026466,-0.07088267772849069,-0.11924093681608011,-0.007008475774733698,-0.15090432982889082,-0.09831803922715483,-0.16622962124198948,-0.19176262507571537,-0.1823913779324097
-0.24435155753676177,-0.28031438518295637,-0.03596282764619457,0.2625429647291014,-0.1045173926212809,-0.15798856760873745,-0.016146556219742467,-0.17359723392040396,-0.12027506589809507,-0.1812825833492408,-0.20322670161169276,-0.18834443330536282
-0.2012790796066358,-0.2329509241075304,-0.03167184450089461,0.21796309871917546,-0.08500675226889903,-0.13269821361015716,0.02034382982478717,-0.15397854791218876,-0.09304406870107314,-0.15957381827388606,-0.17222016642881613,-0.15500677429393198
-0.13463102007954703,-0.15850130113053973,-0.02387028105099271,0.14680179523465636,-0.05595559663495,-0.09181299022454588,0.033782986907012744,-0.13674993955965786,-0.07688305691786664,-0.14450378687521376,-0.15798006201075582,-0.1463824298831227
-0.13453151572254224,-0.14631752985947527,-0.011786014136933046,0.1404090494878576,-0.061025032508544935,-0.07980059550112367,0.029204000982508898,-0.13451363820542314,-0.07582325088396853,-0.1436483800415236,-0.15962354478121224,-0.14933688746420407
-0.15572591956208723,-0.15255647814551004,0.0031694414165770947,0.15349314544392653,-0.07939492829791346,-0.07491297444121518,0.041087685765587814,-0.12474840617046465,-0.062358992703348826,-0.1286417324537745,-0.14827919408558163,-0.13671416095668806
-0.16173159238666554,-0.15641014189559763,0.005321450491067926,0.15849618654050865,-0.08372198550646563,-0.0752136993058798,0.03894306017936555,-0.12386464514782411,-0.06515710927984893,-0.12652046341188564,-0.14911442996523205,-0.13877903667602853
-0.17792043932592097,-0.1753732910535107,0.002547148272410273,0.1759073048030892,-0.09057508449800492,-0.0862524859385509,0.02598430236470095,-0.14300822298470944,-0.08476227735099585,-0.15078313761442616,-0.17142049172292867,-0.15426848170727142
-0.1801328634994807,-0.1736888130276449,0.006444050471835819,0.17666698933566038,-0.0930393746610832,-0.08344439713917906,0.022213259642145385,-0.14844392204995377,-0.09074830896944669,-0.15956449926837143,-0.17682382991247997,-0.15991011136120287
-0.14061861221105984,-0.15338995011390746,-0.012771337902847634,0.14679617884911936,-0.06342395999062285,-0.08321719513896425,0.03507632337556282,-0.13772848452450098,-0.08227350748250985,-0.14860639566797113,-0.16824112236477576,-0.14935272418426812
-0.07416536565059634,-0.10423828031256682,-0.030072914661970464,0.08840505676568589,-0.022910444716632516,-0.06640754378321391,0.05094969148074862,-0.12956985543908464,-0.0739360468033812,-0.13988259537470965,-0.1569801621179468,-0.1443613299407314
-0.04002382249009374,-0.06950080848500782,-0.029476985994914096,0.055080502490788545,-0.004898928796073926,-0.04900790707713863,0.046868364031392454,-0.11959418686501488,-0.07099471091035803,-0.13656043126587206,-0.1582313099575456,-0.1543481187262313
-0.12131892770824766,-0.12334827894774951,-0.002029351239501845,0.12313641754389429,-0.059561916802053486,-0.06248440666103042,0.036407033606845995,-0.12074385226974077,-0.07524711135221226,-0.1424519807643857,-0.17196594653331818,-0.1625229140253447
-0.17298753372326395,-0.16901551384557667,0.003972019877687296,0.17121567409778465,-0.08795408585867998,-0.0824047866755734,0.039054002696154506,-0.1294135118590071,-0.07991548781751223,-0.1507087048819814,-0.17377936807825953,-0.16179361919660268
-0.1723437948230647,-0.18841366739658058,-0.01606987257351591,0.18062862803772514,-0.07733226671344703,-0.10184133271409557,0.03898688231462656,-0.12986398486210624,-0.08021726146026714,-0.14644372797681396,-0.17641083750584372,-0.16157998153601263
-0.11493092027079428,-0.1768962775304604,-0.0619653572596661,0.14665788244920042,-0.026959404896022953,-0.11977496283301953,0.03774216580828396,-0.14346550337316988,-0.09319508217241886,-0.15864754894692956,-0.1851261205765649,-0.1684065880771637
-0.0035742389580674474,-0.09923943228364232,-0.09566519332557487,0.05199072551966116,0.045782020662634274,-0.09780759602388509,0.04662916472917028,-0.13320081100277215,-0.08487834727663655,-0.1477053987054047,-0.17554853837934117,-0.16110378593774494
-0.013294390475922397,-0.07084132555119114,-0.057546935075268764,0.042715791932161344,0.02183785042835877,-0.06441255917373984,0.05346028035550064,-0.10789879724548015,-0.06264323505340505,-0.12863544593381052,-0.1663818663824628,-0.15948659329592804
-0.05756578927664535,-0.1125249883991957,-0.05495919912255038,0.08570934224994389,-0.0011040753869130308,-0.08363725866686808,0.04831992615790134,-0.1081534917088281,-0.06272804779761125,-0.13141748042723989,-0.17582232640097756,-0.17245141559694224
-0.056460138307727066,-0.14005556373908473,-0.08359542543135763,0.09800747572932925,0.013495530746054014,-0.11097722498817654,0.04920595372298853,-0.10256403932166616,-0.06200191805595771,-0.13020098168476463,-0.17654709297518864,-0.1717071817967664
-0.08668768681832095,-0.17107183515201924,-0.08438414833369827,0.12807162874626868,-0.0020979866848948674,-0.12726812702137835,0.06431318176452071,-0.08393757435137274,-0.0497653861195505,-0.12029666393941923,-0.16828960230394527,-0.1619004666314359
-0.04560302522320302,-0.149667020992625,-0.10406399576942202,0.09737570300962395,0.02911443849134388,-0.12606746787808948,0.08430527761761007,-0.06937277260397058,-0.036642083406456354,-0.11318722440211312,-0.15664959965102931,-0.15153415253864785
-0.04462998025421661,-0.11317080458715972,-0.06854082433294312,0.07895480849069972,0.012255110974503906,-0.09126901973552581,0.10188225135768264,-0.03889363540517669,-0.007667161591897067,-0.08390567683828207,-0.14327625024458476,-0.14366570319632382
-0.1061165400967494,-0.12740684010636963,-0.021290300009620237,0.11737122126073639,-0.04226937603290714,-0.0741519285409519,0.11871109327263331,-0.020910136868316602,0.005225436065195392,-0.06763787057350022,-0.13185959687731139,-0.1321827371049546
-0.07792818448042978,-0.1121983799993658,-0.03427019551893604,0.09571055081914903,-0.02092028659355541,-0.07239424799725944,0.13319132516154947,-0.007932538894737445,0.022847961350157344,-0.05275723823071723,-0.11458020687006062,-0.11512478217191065
-0.09346347945547973,-0.10252024076721372,-0.009056761311733994,0.09800157829382435,-0.0420829077396937,-0.05620098487710553,0.1451335880556449,0.015294241045628753,0.050668971652408884,-0.023352065358863867,-0.09282287285069973,-0.09487948223362981
-0.12708135529897424,-0.11872752117327331,0.00835383412570092,0.12270733896881873,-0.0680119581911636,-0.05518677352644424,0.14344235289945134,0.017891593546412173,0.05134600586491375,-0.016366189986288894,-0.0843424936276934,-0.08795328108281675
-0.11388066393150158,-0.09729081702768626,0.016589846903815285,0.10531087839449271,-0.06523486161892623,-0.04106422144901712,0.14397452390841878,0.01958820277379095,0.06055098209954515,-0.007499399017767527,-0.0739039205367609,-0.0744228868530963
-0.10018414235019088,-0.10407561967638232,-0.0038914773261914063,0.10267881992616529,-0.04802954445648949,-0.054295445399766495,0.1244134234285039,0.020635284548670522,0.05645820537631668,-0.007585593633807339,-0.08296325255358823,-0.08611716351406544
-0.09051900601349643,-0.13654792513879296,-0.046028919125296566,0.1130990659190762,-0.022679422579875867,-0.09060014225261447,0.09877446659236419,0.005190791484057422,0.032653704500400664,-0.022137263742240204,-0.103052572916861,-0.10654888302506296
-0.07175067891904297,-0.13301048705816299,-0.06125980813912005,0.10275730601907174,-0.004915686151958462,-0.09651698368385407,0.0966326169554289,-0.0021630635054078967,0.030872281104371416,-0.02478636606381319,-0.11070544425825145,-0.10878596141965778
-0.025520913529343735,-0.09837505461681458,-0.07285414108747088,0.06225789571349665,0.02405043202003028,-0.0850265613339627,0.11538347609910804,0.01251404560768438,0.05093106271993837,-0.009907828953351148,-0.1005088605408288,-0.09882374428253267
-0.017295932338404707,-0.08153582621393618,-0.0642398938755315,0.049691486834249246,0.02360142569971734,-0.07215884712296723,0.1390139513300297,0.05305815142412599,0.08743933051309834,0.019849132521983618,-0.07101358506545838,-0.07412763020196032
