0.028228800000000002,0.006729466666666667,-0.021499333333333332,-0.017490666666666665,0.0243552,-0.006800133333333333,-0.29005200000000003,-0.20402093333333335,-0.09565933333333333,-0.11200653333333334,-0.5959572000000001,-0.015585066666666666
0.0392288,0.010729466666666668,-0.02849933333333333,-0.024490666666666668,0.033355199999999995,-0.008800133333333333,-0.30405200000000004,-0.21202093333333336,-0.09965933333333334,-0.11000653333333334,-0.5899572000000001,-0.006585066666666667
0.0452288,0.014729466666666668,-0.030499333333333333,-0.029490666666666665,0.0383552,-0.006800133333333333,-0.317052,-0.21902093333333336,-0.10465933333333334,-0.10800653333333333,-0.5819572000000001,0.0024149333333333333
0.0492288,0.016729466666666668,-0.03249933333333333,-0.03249066666666667,0.041355199999999995,-0.006800133333333333,-0.329052,-0.22602093333333334,-0.10865933333333334,-0.10500653333333335,-0.5729572,0.013414933333333334
0.0542288,0.019729466666666667,-0.03449933333333333,-0.03649066666666667,0.0443552,-0.006800133333333333,-0.342052,-0.23302093333333335,-0.11065933333333333,-0.10000653333333334,-0.5609572,0.024414933333333333
0.0562288,0.023729466666666667,-0.03249933333333333,-0.03949066666666667,0.0443552,-0.0038001333333333334,-0.35305200000000003,-0.23902093333333335,-0.11265933333333333,-0.09600653333333334,-0.5509572,0.03541493333333333
0.058228800000000004,0.02872946666666667,-0.029499333333333332,-0.04249066666666667,0.0443552,0.00019986666666666668,-0.36405200000000004,-0.24602093333333336,-0.11365933333333333,-0.09000653333333333,-0.5379572,0.04741493333333333
0.0602288,0.03472946666666667,-0.025499333333333332,-0.04749066666666667,0.042355199999999996,0.004199866666666667,-0.37305200000000005,-0.25102093333333336,-0.11365933333333333,-0.08200653333333334,-0.5259572,0.06141493333333333
0.0602288,0.040729466666666665,-0.019499333333333334,-0.05049066666666667,0.0393552,0.010199866666666666,-0.382052,-0.25802093333333337,-0.11365933333333333,-0.07400653333333333,-0.5129572000000001,0.07541493333333334
0.0612288,0.04772946666666667,-0.013499333333333332,-0.05449066666666667,0.0363552,0.016199866666666667,-0.390052,-0.2640209333333334,-0.11265933333333333,-0.06500653333333334,-0.4999572,0.08841493333333333
0.0652288,0.056729466666666666,-0.008499333333333333,-0.06049066666666667,0.0363552,0.024199866666666667,-0.399052,-0.2700209333333334,-0.11365933333333333,-0.05700653333333334,-0.48695720000000003,0.10141493333333335
0.06922880000000001,0.06472946666666667,-0.0044993333333333335,-0.06649066666666667,0.0363552,0.030199866666666665,-0.408052,-0.27802093333333333,-0.11365933333333333,-0.04800653333333334,-0.4719572,0.11441493333333334
0.07322880000000001,0.07272946666666667,-0.0004993333333333334,-0.07249066666666668,0.0363552,0.036199866666666664,-0.41705200000000003,-0.28602093333333334,-0.11365933333333333,-0.039006533333333336,-0.4539572,0.12741493333333334
0.0822288,0.08172946666666667,-0.0004993333333333334,-0.08149066666666667,0.041355199999999995,0.04019986666666667,-0.42705200000000004,-0.29402093333333335,-0.11465933333333334,-0.031006533333333332,-0.4379572,0.13841493333333332
0.08722880000000001,0.08872946666666667,0.0015006666666666666,-0.08749066666666667,0.042355199999999996,0.045199866666666665,-0.43805200000000005,-0.30402093333333335,-0.11565933333333334,-0.023006533333333332,-0.41995720000000003,0.14941493333333333
0.0952288,0.09472946666666666,-0.0004993333333333334,-0.09549066666666667,0.0473552,0.046199866666666665,-0.451052,-0.31402093333333336,-0.11865933333333334,-0.015006533333333334,-0.4019572,0.15941493333333331
0.10422880000000001,0.10172946666666667,-0.0024993333333333334,-0.10249066666666667,0.0533552,0.04919986666666667,-0.464052,-0.3270209333333334,-0.12165933333333334,-0.008006533333333333,-0.3839572,0.16841493333333332
0.1132288,0.10772946666666668,-0.0054993333333333335,-0.11049066666666667,0.0593552,0.05119986666666666,-0.47905200000000003,-0.33902093333333333,-0.12365933333333334,-6.533333333333502e-06,-0.3659572,0.17841493333333333
0.12122880000000001,0.11372946666666667,-0.0074993333333333335,-0.11749066666666667,0.0633552,0.052199866666666664,-0.49205200000000004,-0.35102093333333334,-0.12665933333333335,0.007993466666666667,-0.3489572,0.18841493333333334
0.1302288,0.12072946666666667,-0.009499333333333332,-0.12549066666666667,0.06935519999999999,0.055199866666666667,-0.5060520000000001,-0.36302093333333335,-0.12965933333333335,0.015993466666666668,-0.3329572,0.19741493333333332
0.1392288,0.12872946666666668,-0.010499333333333333,-0.13449066666666668,0.0743552,0.05819986666666667,-0.5200520000000001,-0.37402093333333336,-0.13165933333333335,0.023993466666666668,-0.3179572,0.20741493333333333
0.14722880000000002,0.13672946666666666,-0.010499333333333333,-0.14149066666666668,0.0783552,0.06319986666666666,-0.5340520000000001,-0.38402093333333337,-0.13365933333333335,0.031993466666666664,-0.3019572,0.21741493333333334
0.1522288,0.14272946666666667,-0.009499333333333332,-0.14749066666666666,0.0803552,0.06619986666666666,-0.547052,-0.3940209333333334,-0.13565933333333333,0.039993466666666665,-0.2849572,0.22741493333333332
0.1572288,0.14972946666666667,-0.0074993333333333335,-0.15349066666666666,0.0813552,0.07019986666666667,-0.560052,-0.40302093333333333,-0.13765933333333333,0.04599346666666666,-0.2639572,0.23841493333333333
0.1612288,0.15572946666666668,-0.0054993333333333335,-0.15849066666666667,0.0833552,0.07519986666666667,-0.572052,-0.40902093333333334,-0.13865933333333333,0.05399346666666666,-0.2429572,0.24741493333333334
0.1612288,0.16072946666666668,-0.0004993333333333334,-0.16149066666666667,0.0803552,0.07919986666666666,-0.583052,-0.41702093333333334,-0.13965933333333333,0.06099346666666666,-0.2199572,0.2564149333333334
0.1632288,0.16572946666666666,0.0025006666666666667,-0.16449066666666667,0.0803552,0.08419986666666666,-0.595052,-0.42302093333333335,-0.14065933333333333,0.06699346666666667,-0.1969572,0.2644149333333334
0.1652288,0.16972946666666666,0.004500666666666667,-0.16749066666666668,0.0803552,0.08719986666666667,-0.606052,-0.43102093333333336,-0.14265933333333333,0.07299346666666666,-0.1709572,0.27241493333333333
0.1662288,0.17372946666666667,0.007500666666666667,-0.17049066666666668,0.0783552,0.09019986666666667,-0.616052,-0.43902093333333336,-0.14465933333333333,0.07899346666666666,-0.1469572,0.28041493333333334
0.1672288,0.17672946666666667,0.009500666666666668,-0.17149066666666668,0.0783552,0.09319986666666667,-0.625052,-0.44602093333333337,-0.14565933333333334,0.08499346666666667,-0.1229572,0.28641493333333334
0.17122880000000001,0.18172946666666667,0.010500666666666669,-0.17649066666666668,0.0803552,0.09619986666666666,-0.6340520000000001,-0.4530209333333334,-0.14765933333333334,0.08999346666666666,-0.1009572,0.29141493333333335
0.17522880000000002,0.18572946666666668,0.010500666666666669,-0.18049066666666666,0.0813552,0.09719986666666666,-0.6430520000000001,-0.4610209333333334,-0.14965933333333334,0.09499346666666666,-0.08195720000000001,0.29641493333333335
0.18122880000000002,0.18972946666666668,0.008500666666666669,-0.18549066666666666,0.0863552,0.09919986666666666,-0.6520520000000001,-0.46802093333333333,-0.15165933333333334,0.09899346666666667,-0.0649572,0.30041493333333336
0.1872288,0.19272946666666668,0.005500666666666667,-0.18949066666666667,0.0903552,0.09919986666666666,-0.6600520000000001,-0.47402093333333334,-0.15165933333333334,0.10299346666666666,-0.0489572,0.30241493333333336
0.1952288,0.19572946666666668,0.0005006666666666666,-0.19549066666666667,0.0963552,0.09719986666666666,-0.6670520000000001,-0.48002093333333334,-0.15265933333333334,0.10499346666666666,-0.0359572,0.30441493333333336
0.20322880000000001,0.19772946666666666,-0.0054993333333333335,-0.20049066666666668,0.1043552,0.09619986666666666,-0.674052,-0.48602093333333335,-0.15265933333333334,0.10799346666666666,-0.0239572,0.30641493333333336
0.21222880000000002,0.20072946666666666,-0.011499333333333332,-0.20649066666666668,0.1113552,0.09419986666666667,-0.681052,-0.49002093333333335,-0.15265933333333334,0.11099346666666667,-0.0129572,0.30641493333333336
0.2192288,0.20272946666666666,-0.01649933333333333,-0.2104906666666667,0.11735519999999999,0.09319986666666667,-0.687052,-0.49502093333333336,-0.15265933333333334,0.11199346666666667,-0.0039572,0.30741493333333336
0.2252288,0.20272946666666666,-0.022499333333333333,-0.21349066666666666,0.1233552,0.09019986666666667,-0.694052,-0.49802093333333336,-0.15265933333333334,0.11399346666666667,0.0050428,0.30741493333333336
0.2292288,0.20172946666666666,-0.027499333333333334,-0.21549066666666666,0.1283552,0.08719986666666667,-0.698052,-0.5010209333333333,-0.15265933333333334,0.11499346666666667,0.0130428,0.30741493333333336
0.2322288,0.20172946666666666,-0.030499333333333333,-0.21649066666666666,0.1313552,0.08519986666666667,-0.702052,-0.5020209333333333,-0.15065933333333334,0.11599346666666667,0.0200428,0.30641493333333336
0.2312288,0.19972946666666666,-0.03149933333333333,-0.21549066666666666,0.1313552,0.08419986666666666,-0.705052,-0.5030209333333333,-0.14865933333333334,0.11699346666666667,0.0270428,0.30541493333333336
0.2272288,0.19672946666666666,-0.030499333333333333,-0.21249066666666666,0.1283552,0.08219986666666666,-0.708052,-0.5020209333333333,-0.14665933333333334,0.11599346666666667,0.0310428,0.30441493333333336
0.2252288,0.19672946666666666,-0.02849933333333333,-0.2104906666666667,0.1263552,0.08419986666666666,-0.709052,-0.49902093333333336,-0.14365933333333333,0.11599346666666667,0.0350428,0.30141493333333336
0.2202288,0.19472946666666668,-0.025499333333333332,-0.20749066666666668,0.1223552,0.08419986666666666,-0.709052,-0.49402093333333336,-0.14165933333333333,0.11599346666666667,0.0390428,0.29841493333333335
0.2152288,0.19372946666666668,-0.021499333333333332,-0.20449066666666668,0.11735519999999999,0.08519986666666667,-0.708052,-0.48902093333333335,-0.13765933333333333,0.11599346666666667,0.0420428,0.29641493333333335
0.21022880000000002,0.19372946666666668,-0.01649933333333333,-0.20149066666666668,0.1133552,0.08819986666666667,-0.704052,-0.48202093333333335,-0.13365933333333335,0.11599346666666667,0.0440428,0.29141493333333335
0.20222880000000001,0.19272946666666668,-0.009499333333333332,-0.19749066666666668,0.1053552,0.09119986666666667,-0.700052,-0.47402093333333334,-0.12965933333333335,0.11499346666666667,0.0460428,0.28741493333333334
0.1952288,0.19072946666666668,-0.0044993333333333335,-0.19249066666666667,0.0993552,0.09319986666666667,-0.695052,-0.46502093333333333,-0.12565933333333335,0.11399346666666667,0.0470428,0.28341493333333334
0.1912288,0.19172946666666668,0.0005006666666666666,-0.19149066666666667,0.0953552,0.09619986666666666,-0.688052,-0.4560209333333334,-0.12065933333333334,0.11299346666666667,0.048042800000000004,0.27741493333333334
0.1842288,0.18972946666666668,0.005500666666666667,-0.18649066666666667,0.0893552,0.09719986666666666,-0.680052,-0.44502093333333337,-0.11665933333333334,0.11199346666666667,0.0490428,0.27141493333333333
0.17622880000000002,0.18472946666666668,0.008500666666666669,-0.18049066666666666,0.0833552,0.09619986666666666,-0.673052,-0.43502093333333336,-0.11165933333333333,0.10999346666666666,0.0490428,0.2654149333333334
0.1682288,0.18072946666666667,0.012500666666666669,-0.17449066666666668,0.0773552,0.09619986666666666,-0.6630520000000001,-0.42402093333333335,-0.10765933333333334,0.10799346666666666,0.048042800000000004,0.2594149333333334
0.1612288,0.17672946666666667,0.015500666666666668,-0.16849066666666668,0.0723552,0.09619986666666666,-0.6530520000000001,-0.41302093333333334,-0.10265933333333334,0.10399346666666666,0.0460428,0.2514149333333333
0.1542288,0.17072946666666666,0.016500666666666667,-0.16249066666666667,0.06835519999999999,0.09319986666666667,-0.6420520000000001,-0.40002093333333333,-0.09665933333333333,0.10099346666666667,0.0430428,0.24341493333333333
0.14722880000000002,0.16372946666666668,0.016500666666666667,-0.15549066666666667,0.0653552,0.09019986666666667,-0.6300520000000001,-0.3870209333333334,-0.09165933333333334,0.09599346666666667,0.0390428,0.23441493333333333
0.14022880000000001,0.15572946666666668,0.015500666666666668,-0.14749066666666666,0.0623552,0.08519986666666667,-0.618052,-0.37502093333333336,-0.08565933333333334,0.09099346666666666,0.0360428,0.22541493333333332
0.1322288,0.14872946666666667,0.016500666666666667,-0.14049066666666668,0.057355199999999995,0.08219986666666666,-0.606052,-0.36102093333333335,-0.07965933333333333,0.08599346666666667,0.0320428,0.21641493333333334
0.1262288,0.14172946666666666,0.015500666666666668,-0.13449066666666668,0.0543552,0.07819986666666667,-0.591052,-0.34702093333333334,-0.07365933333333334,0.07999346666666667,0.0290428,0.20841493333333333
0.11822880000000001,0.13572946666666666,0.017500666666666668,-0.12649066666666667,0.050355199999999996,0.07619986666666667,-0.576052,-0.3330209333333334,-0.06565933333333333,0.07699346666666666,0.0270428,0.19941493333333332
0.10722880000000001,0.12772946666666668,0.020500666666666667,-0.11749066666666667,0.042355199999999996,0.07319986666666667,-0.559052,-0.31802093333333337,-0.05765933333333334,0.07399346666666666,0.0260428,0.19241493333333332
0.0992288,0.12172946666666667,0.02250066666666667,-0.11049066666666667,0.0383552,0.07219986666666667,-0.541052,-0.30402093333333335,-0.050659333333333334,0.07199346666666666,0.0250428,0.18541493333333334
0.09122880000000001,0.11772946666666667,0.02650066666666667,-0.10449066666666668,0.032355199999999994,0.07219986666666667,-0.5230520000000001,-0.28802093333333334,-0.04165933333333334,0.06999346666666667,0.0250428,0.17841493333333333
0.0812288,0.11172946666666667,0.03050066666666667,-0.09649066666666667,0.0243552,0.07019986666666667,-0.5040520000000001,-0.2730209333333333,-0.03165933333333333,0.06899346666666667,0.0260428,0.17241493333333333
0.07122880000000001,0.10672946666666668,0.035500666666666666,-0.08949066666666668,0.0173552,0.07019986666666667,-0.48605200000000004,-0.25702093333333337,-0.021659333333333333,0.06699346666666667,0.0260428,0.16641493333333332
0.0622288,0.10172946666666667,0.03950066666666667,-0.08149066666666667,0.011355200000000001,0.07019986666666667,-0.467052,-0.24102093333333335,-0.012659333333333333,0.06599346666666667,0.0270428,0.16041493333333331
0.0532288,0.09572946666666667,0.042500666666666666,-0.07449066666666668,0.0053552,0.06919986666666667,-0.448052,-0.22702093333333334,-0.004659333333333334,0.06299346666666666,0.0260428,0.15241493333333334
0.0472288,0.08972946666666667,0.042500666666666666,-0.06849066666666667,0.0023552,0.06619986666666666,-0.42905200000000004,-0.21302093333333336,0.0013406666666666664,0.05899346666666666,0.0240428,0.14441493333333333
0.0442288,0.08472946666666667,0.04050066666666667,-0.06349066666666667,0.0023552,0.06319986666666666,-0.41205200000000003,-0.20002093333333335,0.006340666666666666,0.05399346666666666,0.0210428,0.13541493333333332
0.0402288,0.07872946666666666,0.03850066666666667,-0.05949066666666667,0.0013552,0.05819986666666667,-0.395052,-0.18802093333333336,0.009340666666666667,0.046993466666666664,0.0160428,0.12541493333333334
0.0382288,0.07272946666666667,0.034500666666666666,-0.05449066666666667,0.0023552,0.054199866666666666,-0.37805200000000005,-0.17702093333333335,0.011340666666666667,0.038993466666666664,0.0100428,0.11341493333333334
0.0372288,0.06672946666666667,0.029500666666666668,-0.05149066666666667,0.0033552,0.04819986666666667,-0.36105200000000004,-0.16602093333333334,0.011340666666666667,0.030993466666666667,0.0030427999999999996,0.10241493333333333
0.0392288,0.06172946666666667,0.02250066666666667,-0.05049066666666667,0.0083552,0.04219986666666667,-0.344052,-0.15402093333333336,0.011340666666666667,0.021993466666666666,-0.0049572,0.09141493333333334
0.0382288,0.05372946666666667,0.015500666666666668,-0.04549066666666667,0.011355200000000001,0.03419986666666667,-0.327052,-0.14402093333333335,0.011340666666666667,0.011993466666666668,-0.011957200000000001,0.08041493333333334
0.0392288,0.048729466666666665,0.009500666666666668,-0.04449066666666667,0.0143552,0.028199866666666667,-0.31005200000000005,-0.13302093333333334,0.010340666666666668,0.0039934666666666665,-0.020957200000000002,0.07041493333333333
0.0382288,0.04472946666666667,0.006500666666666667,-0.04149066666666667,0.015355200000000001,0.025199866666666664,-0.29405200000000004,-0.12102093333333333,0.011340666666666667,-0.0030065333333333336,-0.0269572,0.06141493333333333
0.0332288,0.03972946666666667,0.006500666666666667,-0.03649066666666667,0.0123552,0.022199866666666665,-0.276052,-0.10902093333333333,0.012340666666666668,-0.010006533333333333,-0.0319572,0.05541493333333333
0.0272288,0.03472946666666667,0.007500666666666667,-0.030490666666666666,0.009355200000000001,0.021199866666666664,-0.257052,-0.09602093333333334,0.014340666666666668,-0.015006533333333334,-0.0359572,0.05141493333333333
0.0192288,0.030729466666666667,0.011500666666666668,-0.024490666666666668,0.0033552,0.021199866666666664,-0.240052,-0.08402093333333334,0.016340666666666667,-0.019006533333333332,-0.038957200000000004,0.04641493333333333
0.0112288,0.026729466666666667,0.015500666666666668,-0.018490666666666666,-0.0016448,0.021199866666666664,-0.221052,-0.07002093333333333,0.01834066666666667,-0.024006533333333333,-0.0409572,0.04341493333333333
0.0002288000000000001,0.022729466666666667,0.02250066666666667,-0.011490666666666666,-0.0106448,0.022199866666666665,-0.20405199999999998,-0.05802093333333333,0.021340666666666668,-0.027006533333333332,-0.0439572,0.041414933333333334
-0.0087712,0.01772946666666667,0.02650066666666667,-0.003490666666666667,-0.0166448,0.022199866666666665,-0.186052,-0.04602093333333333,0.024340666666666667,-0.03200653333333334,-0.046957200000000004,0.03841493333333333
-0.0177712,0.013729466666666667,0.03150066666666667,0.0015093333333333332,-0.0246448,0.022199866666666665,-0.170052,-0.03502093333333333,0.025340666666666668,-0.03600653333333334,-0.0489572,0.03441493333333333
-0.0257712,0.008729466666666668,0.034500666666666666,0.007509333333333333,-0.0306448,0.021199866666666664,-0.154052,-0.025020933333333332,0.02634066666666667,-0.04200653333333334,-0.0519572,0.030414933333333335
-0.030771200000000002,0.004729466666666667,0.035500666666666666,0.012509333333333334,-0.0336448,0.019199866666666666,-0.139052,-0.01602093333333333,0.02734066666666667,-0.047006533333333336,-0.0559572,0.026414933333333335
-0.0357712,0.0007294666666666668,0.03650066666666667,0.016509333333333334,-0.036644800000000005,0.018199866666666665,-0.125052,-0.006020933333333334,0.02734066666666667,-0.05200653333333334,-0.0589572,0.021414933333333334
-0.0387712,-0.0022705333333333335,0.03650066666666667,0.019509333333333333,-0.037644800000000006,0.016199866666666667,-0.113052,0.0009790666666666663,0.028340666666666667,-0.05700653333333334,-0.0609572,0.016414933333333333
-0.0387712,-0.004270533333333333,0.034500666666666666,0.021509333333333335,-0.036644800000000005,0.015199866666666667,-0.10205199999999999,0.007979066666666666,0.028340666666666667,-0.06100653333333334,-0.0639572,0.012414933333333334
-0.0387712,-0.005270533333333333,0.03350066666666667,0.021509333333333335,-0.036644800000000005,0.013199866666666667,-0.093052,0.013979066666666666,0.028340666666666667,-0.06600653333333334,-0.06595720000000001,0.008414933333333334
-0.0377712,-0.005270533333333333,0.03250066666666667,0.021509333333333335,-0.0346448,0.013199866666666667,-0.08405199999999999,0.01897906666666667,0.02734066666666667,-0.06800653333333334,-0.0689572,0.005414933333333333
-0.0377712,-0.005270533333333333,0.03250066666666667,0.021509333333333335,-0.0346448,0.013199866666666667,-0.077052,0.02297906666666667,0.02734066666666667,-0.07100653333333334,-0.0709572,0.0024149333333333333
-0.0357712,-0.005270533333333333,0.03050066666666667,0.019509333333333333,-0.0336448,0.012199866666666666,-0.07105199999999999,0.02597906666666667,0.02734066666666667,-0.07300653333333335,-0.0729572,0.00041493333333333335
-0.0337712,-0.0032705333333333335,0.03050066666666667,0.018509333333333336,-0.0316448,0.013199866666666667,-0.067052,0.028979066666666668,0.025340666666666668,-0.07400653333333333,-0.0759572,-0.0015850666666666667
-0.030771200000000002,-0.0032705333333333335,0.02750066666666667,0.016509333333333334,-0.0286448,0.012199866666666666,-0.064052,0.03097906666666667,0.024340666666666667,-0.07700653333333334,-0.0799572,-0.005585066666666667
-0.0297712,-0.0022705333333333335,0.02750066666666667,0.015509333333333335,-0.0286448,0.012199866666666666,-0.060052,0.03197906666666667,0.02334066666666667,-0.07800653333333334,-0.08295720000000001,-0.007585066666666667
-0.0277712,-0.0012705333333333333,0.02650066666666667,0.013509333333333335,-0.0276448,0.012199866666666666,-0.057052,0.03397906666666667,0.02334066666666667,-0.07900653333333334,-0.0849572,-0.009585066666666666
-0.0277712,-0.0012705333333333333,0.02650066666666667,0.013509333333333335,-0.0276448,0.012199866666666666,-0.054052,0.03597906666666667,0.021340666666666668,-0.08100653333333334,-0.0859572,-0.012585066666666667
-0.0277712,-0.0002705333333333333,0.02750066666666667,0.013509333333333335,-0.0276448,0.013199866666666667,-0.052052,0.03797906666666667,0.020340666666666667,-0.08300653333333334,-0.0879572,-0.014585066666666667
-0.0277712,-0.0012705333333333333,0.02650066666666667,0.013509333333333335,-0.0276448,0.012199866666666666,-0.048052,0.038979066666666666,0.020340666666666667,-0.08300653333333334,-0.0869572,-0.017585066666666666
-0.0277712,-0.0002705333333333333,0.02750066666666667,0.013509333333333335,-0.0276448,0.013199866666666667,-0.045052,0.04097906666666667,0.020340666666666667,-0.08300653333333334,-0.0839572,-0.018585066666666667
-0.0287712,0.0007294666666666668,0.029500666666666668,0.013509333333333335,-0.0286448,0.015199866666666667,-0.040052,0.04297906666666667,0.021340666666666668,-0.08200653333333334,-0.0799572,-0.018585066666666667
-0.030771200000000002,0.0017294666666666668,0.03250066666666667,0.013509333333333335,-0.0316448,0.016199866666666667,-0.036052,0.04497906666666667,0.02234066666666667,-0.07900653333333334,-0.0749572,-0.017585066666666666
-0.0317712,0.0037294666666666666,0.035500666666666666,0.013509333333333335,-0.0336448,0.019199866666666666,-0.032052,0.04797906666666667,0.02334066666666667,-0.07600653333333333,-0.0699572,-0.017585066666666666
-0.0297712,0.006729466666666667,0.03650066666666667,0.010509333333333334,-0.0336448,0.021199866666666664,-0.029052,0.05097906666666667,0.024340666666666667,-0.07500653333333333,-0.0649572,-0.016585066666666665
-0.026771200000000002,0.009729466666666667,0.03650066666666667,0.007509333333333333,-0.0316448,0.022199866666666665,-0.026052,0.05197906666666667,0.024340666666666667,-0.07200653333333334,-0.0609572,-0.015585066666666666
-0.0247712,0.011729466666666667,0.03650066666666667,0.006509333333333333,-0.0306448,0.024199866666666667,-0.024052,0.05197906666666667,0.024340666666666667,-0.06800653333333334,-0.0569572,-0.014585066666666667
-0.0217712,0.014729466666666668,0.03650066666666667,0.003509333333333333,-0.0286448,0.025199866666666664,-0.021052,0.05197906666666667,0.02234066666666667,-0.06700653333333334,-0.0529572,-0.014585066666666667
-0.0167712,0.01772946666666667,0.034500666666666666,-0.0014906666666666668,-0.0256448,0.025199866666666664,-0.021052,0.05097906666666667,0.021340666666666668,-0.06400653333333334,-0.0499572,-0.014585066666666667
-0.0097712,0.020729466666666668,0.03050066666666667,-0.005490666666666667,-0.0196448,0.025199866666666664,-0.022052,0.04797906666666667,0.01934066666666667,-0.06400653333333334,-0.046957200000000004,-0.016585066666666665
-0.005771200000000001,0.022729466666666667,0.028500666666666667,-0.008490666666666665,-0.0166448,0.025199866666666664,-0.023052,0.04397906666666667,0.017340666666666667,-0.06300653333333334,-0.0439572,-0.018585066666666667
-0.0007711999999999999,0.023729466666666667,0.024500666666666667,-0.011490666666666666,-0.0126448,0.024199866666666667,-0.025052,0.03997906666666667,0.015340666666666667,-0.06100653333333334,-0.0419572,-0.019585066666666668
0.0012288000000000002,0.022729466666666667,0.021500666666666668,-0.011490666666666666,-0.0096448,0.022199866666666665,-0.026052,0.03697906666666667,0.013340666666666667,-0.06100653333333334,-0.038957200000000004,-0.021585066666666666
0.0022288,0.020729466666666668,0.01850066666666667,-0.011490666666666666,-0.0076448,0.019199866666666666,-0.029052,0.03397906666666667,0.012340666666666668,-0.06000653333333334,-0.0369572,-0.023585066666666668
0.0022288,0.018729466666666666,0.016500666666666667,-0.009490666666666666,-0.0066448,0.018199866666666665,-0.031052,0.03097906666666667,0.010340666666666668,-0.06000653333333334,-0.0349572,-0.026585066666666667
0.0012288000000000002,0.015729466666666667,0.014500666666666669,-0.008490666666666665,-0.0066448,0.015199866666666667,-0.034052,0.02997906666666667,0.009340666666666667,-0.05900653333333334,-0.0329572,-0.027585066666666668
-0.0017712,0.012729466666666668,0.014500666666666669,-0.005490666666666667,-0.0076448,0.013199866666666667,-0.035052,0.02997906666666667,0.008340666666666668,-0.05800653333333334,-0.0309572,-0.028585066666666666
-0.0037712,0.008729466666666668,0.012500666666666669,-0.002490666666666667,-0.0076448,0.010199866666666666,-0.037052,0.028979066666666668,0.007340666666666666,-0.05800653333333334,-0.028957200000000002,-0.028585066666666666
-0.006771200000000001,0.005729466666666667,0.012500666666666669,0.0005093333333333332,-0.0096448,0.009199866666666667,-0.039052,0.028979066666666668,0.004340666666666666,-0.05700653333333334,-0.0279572,-0.028585066666666666
-0.007771200000000001,0.0037294666666666666,0.011500666666666668,0.0015093333333333332,-0.0096448,0.007199866666666667,-0.041052,0.028979066666666668,0.0033406666666666667,-0.05700653333333334,-0.0259572,-0.028585066666666666
-0.0087712,0.0037294666666666666,0.012500666666666669,0.0015093333333333332,-0.0106448,0.007199866666666667,-0.041052,0.02797906666666667,0.0013406666666666664,-0.05600653333333334,-0.0239572,-0.028585066666666666
-0.0087712,0.0037294666666666666,0.012500666666666669,0.0015093333333333332,-0.0106448,0.007199866666666667,-0.043052,0.02797906666666667,0.00034066666666666647,-0.05600653333333334,-0.0229572,-0.027585066666666668
-0.0097712,0.004729466666666667,0.014500666666666669,0.0015093333333333332,-0.0126448,0.009199866666666667,-0.044052,0.02797906666666667,-0.0016593333333333336,-0.054006533333333336,-0.0219572,-0.026585066666666667
-0.0107712,0.006729466666666667,0.017500666666666668,0.0015093333333333332,-0.0136448,0.012199866666666666,-0.044052,0.028979066666666668,-0.0026593333333333334,-0.05200653333333334,-0.0179572,-0.024585066666666665
-0.0117712,0.007729466666666667,0.01950066666666667,0.0015093333333333332,-0.0156448,0.013199866666666667,-0.044052,0.028979066666666668,-0.0036593333333333334,-0.04900653333333334,-0.0149572,-0.022585066666666667
-0.0147712,0.009729466666666667,0.024500666666666667,0.0015093333333333332,-0.0196448,0.016199866666666667,-0.044052,0.02997906666666667,-0.0026593333333333334,-0.04500653333333334,-0.0109572,-0.020585066666666665
-0.018771200000000002,0.011729466666666667,0.03050066666666667,0.003509333333333333,-0.0246448,0.021199866666666664,-0.043052,0.03197906666666667,-0.0016593333333333336,-0.04200653333333334,-0.0059572,-0.018585066666666667
-0.0207712,0.013729466666666667,0.034500666666666666,0.003509333333333333,-0.0276448,0.024199866666666667,-0.044052,0.03297906666666667,-0.0006593333333333336,-0.038006533333333335,-0.0029572000000000005,-0.016585066666666665
-0.0257712,0.014729466666666668,0.04050066666666667,0.004509333333333333,-0.0336448,0.027199866666666666,-0.044052,0.03297906666666667,0.00034066666666666647,-0.03500653333333334,0.0010427999999999998,-0.013585066666666666
-0.026771200000000002,0.016729466666666668,0.04350066666666667,0.004509333333333333,-0.0346448,0.030199866666666665,-0.045052,0.03297906666666667,0.0013406666666666664,-0.03200653333333334,0.0060428,-0.011585066666666666
-0.030771200000000002,0.016729466666666668,0.04750066666666667,0.006509333333333333,-0.03964480000000001,0.031199866666666666,-0.046052,0.03197906666666667,0.0023406666666666667,-0.030006533333333335,0.0080428,-0.010585066666666667
-0.0317712,0.018729466666666666,0.050500666666666666,0.006509333333333333,-0.0406448,0.03419986666666667,-0.048052,0.03097906666666667,0.0013406666666666664,-0.028006533333333333,0.0110428,-0.010585066666666667
-0.0287712,0.02172946666666667,0.050500666666666666,0.003509333333333333,-0.03964480000000001,0.036199866666666664,-0.049052,0.028979066666666668,0.0013406666666666664,-0.029006533333333334,0.0120428,-0.010585066666666667
-0.0247712,0.023729466666666667,0.04850066666666667,0.0005093333333333332,-0.036644800000000005,0.036199866666666664,-0.050052,0.02597906666666667,0.00034066666666666647,-0.028006533333333333,0.0120428,-0.011585066666666666
-0.0197712,0.02572946666666667,0.04550066666666667,-0.002490666666666667,-0.0316448,0.036199866666666664,-0.051052,0.02597906666666667,0.00034066666666666647,-0.029006533333333334,0.0110428,-0.012585066666666667
-0.0137712,0.030729466666666667,0.04450066666666667,-0.008490666666666665,-0.0286448,0.037199866666666664,-0.051052,0.02597906666666667,-0.0006593333333333336,-0.029006533333333334,0.0110428,-0.013585066666666666
-0.007771200000000001,0.033729466666666666,0.04150066666666667,-0.012490666666666666,-0.0246448,0.037199866666666664,-0.051052,0.02597906666666667,0.00034066666666666647,-0.030006533333333335,0.0120428,-0.014585066666666667
-0.0037712,0.03872946666666667,0.042500666666666666,-0.017490666666666665,-0.0226448,0.04019986666666667,-0.050052,0.02797906666666667,0.0023406666666666667,-0.028006533333333333,0.0130428,-0.014585066666666667
-0.0027712,0.041729466666666666,0.04450066666666667,-0.018490666666666666,-0.0226448,0.04319986666666666,-0.047052000000000004,0.02997906666666667,0.0033406666666666667,-0.027006533333333332,0.0150428,-0.012585066666666667
0.0002288000000000001,0.04772946666666667,0.04750066666666667,-0.023490666666666667,-0.0226448,0.04819986666666667,-0.044052,0.03397906666666667,0.006340666666666666,-0.024006533333333333,0.0180428,-0.010585066666666667
-0.0027712,0.05072946666666667,0.05350066666666667,-0.023490666666666667,-0.0276448,0.052199866666666664,-0.041052,0.03797906666666667,0.010340666666666668,-0.022006533333333335,0.0210428,-0.008585066666666667
-0.006771200000000001,0.05372946666666667,0.06050066666666667,-0.023490666666666667,-0.0336448,0.05719986666666667,-0.037052,0.04197906666666667,0.013340666666666667,-0.018006533333333335,0.0240428,-0.006585066666666667
-0.0097712,0.057729466666666666,0.06750066666666667,-0.023490666666666667,-0.037644800000000006,0.06319986666666666,-0.034052,0.04497906666666667,0.016340666666666667,-0.016006533333333333,0.0270428,-0.004585066666666667
-0.0137712,0.06072946666666667,0.07450066666666666,-0.023490666666666667,-0.043644800000000004,0.06719986666666666,-0.031052,0.04897906666666667,0.01834066666666667,-0.012006533333333333,0.0290428,-0.0025850666666666668
-0.0177712,0.06272946666666666,0.08050066666666666,-0.021490666666666665,-0.0486448,0.07219986666666667,-0.029052,0.04997906666666667,0.020340666666666667,-0.010006533333333333,0.0320428,-0.0005850666666666666
-0.0207712,0.06472946666666667,0.08550066666666666,-0.021490666666666665,-0.052644800000000005,0.07519986666666667,-0.027052,0.05097906666666667,0.020340666666666667,-0.007006533333333334,0.0330428,-0.0005850666666666666
-0.0217712,0.06872946666666667,0.09050066666666666,-0.023490666666666667,-0.05564480000000001,0.07919986666666666,-0.027052,0.05097906666666667,0.02234066666666667,-0.005006533333333334,0.0350428,0.00041493333333333335
-0.0217712,0.07172946666666667,0.09350066666666666,-0.024490666666666668,-0.0576448,0.08219986666666666,-0.029052,0.04997906666666667,0.021340666666666668,-0.0020065333333333336,0.0390428,0.0014149333333333333
-0.0217712,0.07572946666666668,0.09750066666666667,-0.026490666666666666,-0.058644800000000004,0.08719986666666667,-0.031052,0.04797906666666667,0.021340666666666668,0.0009934666666666665,0.0420428,0.0034149333333333334
-0.022771200000000002,0.08172946666666667,0.10450066666666666,-0.029490666666666665,-0.0636448,0.09319986666666667,-0.035052,0.04497906666666667,0.021340666666666668,0.0039934666666666665,0.0440428,0.005414933333333333
-0.0207712,0.08872946666666667,0.10950066666666666,-0.03349066666666667,-0.0646448,0.09919986666666666,-0.041052,0.04097906666666667,0.01934066666666667,0.0059934666666666666,0.0470428,0.008414933333333334
-0.0167712,0.09672946666666667,0.11350066666666667,-0.03949066666666667,-0.0646448,0.10519986666666667,-0.048052,0.03697906666666667,0.01834066666666667,0.008993466666666667,0.0510428,0.012414933333333334
-0.0127712,0.10472946666666667,0.11750066666666666,-0.04549066666666667,-0.0646448,0.11119986666666666,-0.057052,0.03097906666666667,0.015340666666666667,0.010993466666666667,0.0530428,0.015414933333333334
-0.007771200000000001,0.11172946666666667,0.11950066666666666,-0.05149066666666667,-0.0636448,0.11519986666666666,-0.066052,0.02397906666666667,0.013340666666666667,0.010993466666666667,0.0540428,0.018414933333333335
-0.0027712,0.11872946666666667,0.12150066666666666,-0.05749066666666667,-0.06164480000000001,0.12019986666666667,-0.076052,0.017979066666666668,0.009340666666666667,0.011993466666666668,0.0540428,0.021414933333333334
0.0062288,0.12572946666666668,0.11950066666666666,-0.06549066666666667,-0.05564480000000001,0.12319986666666667,-0.08505199999999999,0.011979066666666666,0.006340666666666666,0.009993466666666668,0.0540428,0.024414933333333333
0.0132288,0.13072946666666668,0.11750066666666666,-0.07149066666666667,-0.051644800000000005,0.12419986666666667,-0.093052,0.004979066666666666,0.0013406666666666664,0.008993466666666667,0.0520428,0.026414933333333335
0.0212288,0.13372946666666666,0.11250066666666667,-0.07749066666666667,-0.045644800000000006,0.12319986666666667,-0.10105199999999999,-0.0010209333333333337,-0.0026593333333333334,0.0059934666666666666,0.0500428,0.027414933333333336
0.0292288,0.13472946666666666,0.10550066666666666,-0.08149066666666667,-0.037644800000000006,0.12019986666666667,-0.108052,-0.007020933333333334,-0.007659333333333334,0.0039934666666666665,0.0470428,0.027414933333333336
0.0362288,0.13472946666666666,0.09850066666666667,-0.08449066666666667,-0.0306448,0.11719986666666667,-0.114052,-0.012020933333333334,-0.011659333333333332,0.0019934666666666665,0.0450428,0.027414933333333336
0.0392288,0.13172946666666668,0.09250066666666666,-0.08449066666666667,-0.0256448,0.11219986666666666,-0.11905199999999999,-0.01602093333333333,-0.01665933333333333,-6.533333333333502e-06,0.0430428,0.027414933333333336
0.0412288,0.12872946666666668,0.08750066666666666,-0.08449066666666667,-0.0226448,0.10819986666666667,-0.123052,-0.018020933333333333,-0.02065933333333333,-0.0010065333333333336,0.0420428,0.026414933333333335
0.0402288,0.12372946666666668,0.08350066666666667,-0.08149066666666667,-0.0216448,0.10319986666666667,-0.127052,-0.02002093333333333,-0.02465933333333333,-0.0010065333333333336,0.0410428,0.026414933333333335
0.0392288,0.11872946666666667,0.07950066666666666,-0.07849066666666667,-0.0196448,0.09919986666666666,-0.130052,-0.021020933333333332,-0.027659333333333334,-0.0020065333333333336,0.0400428,0.024414933333333333
0.0352288,0.11372946666666667,0.07850066666666666,-0.07449066666666668,-0.0216448,0.09619986666666666,-0.132052,-0.021020933333333332,-0.029659333333333333,-0.0020065333333333336,0.0400428,0.024414933333333333
0.0322288,0.10772946666666668,0.07550066666666666,-0.06949066666666667,-0.0216448,0.09119986666666667,-0.133052,-0.02002093333333333,-0.03265933333333334,-0.0010065333333333336,0.0390428,0.021414933333333334
0.028228800000000002,0.10072946666666667,0.07250066666666666,-0.06349066666666667,-0.0216448,0.08719986666666667,-0.134052,-0.019020933333333333,-0.03365933333333334,-0.0010065333333333336,0.0380428,0.020414933333333333
0.0242288,0.09472946666666666,0.07050066666666666,-0.05949066666666667,-0.0226448,0.08219986666666666,-0.133052,-0.015020933333333333,-0.034659333333333334,-6.533333333333502e-06,0.0370428,0.016414933333333333
0.0212288,0.08872946666666667,0.06750066666666667,-0.05449066666666667,-0.0226448,0.07819986666666667,-0.132052,-0.014020933333333334,-0.036659333333333335,-0.0010065333333333336,0.0350428,0.013414933333333334
0.0202288,0.08072946666666667,0.06050066666666667,-0.05049066666666667,-0.0196448,0.07019986666666667,-0.131052,-0.013020933333333333,-0.03865933333333334,-0.0030065333333333336,0.0310428,0.0074149333333333334
0.0202288,0.07272946666666667,0.05250066666666667,-0.04549066666666667,-0.0156448,0.06319986666666666,-0.129052,-0.012020933333333334,-0.04065933333333334,-0.006006533333333334,0.0260428,0.0024149333333333333
0.0192288,0.06472946666666667,0.04550066666666667,-0.04149066666666667,-0.0126448,0.055199866666666667,-0.127052,-0.011020933333333333,-0.044659333333333336,-0.009006533333333334,0.0210428,-0.0025850666666666668
0.0162288,0.05472946666666667,0.03850066666666667,-0.03549066666666667,-0.0106448,0.046199866666666665,-0.124052,-0.010020933333333334,-0.04865933333333334,-0.015006533333333334,0.0150428,-0.009585066666666666
0.0152288,0.04472946666666667,0.029500666666666668,-0.029490666666666665,-0.0066448,0.037199866666666664,-0.12105199999999999,-0.009020933333333333,-0.05365933333333334,-0.021006533333333334,0.0090428,-0.016585066666666665
0.0112288,0.033729466666666666,0.02250066666666667,-0.021490666666666665,-0.0046448,0.028199866666666667,-0.11805199999999999,-0.009020933333333333,-0.059659333333333335,-0.027006533333333332,4.2799999999999726e-05,-0.022585066666666667
0.0062288,0.022729466666666667,0.016500666666666667,-0.014490666666666666,-0.0046448,0.019199866666666666,-0.115052,-0.009020933333333333,-0.06565933333333333,-0.03500653333333334,-0.007957200000000001,-0.029585066666666666
-0.0007711999999999999,0.011729466666666667,0.012500666666666669,-0.005490666666666667,-0.0066448,0.012199866666666666,-0.112052,-0.009020933333333333,-0.07065933333333334,-0.04000653333333334,-0.0149572,-0.03558506666666667
-0.006771200000000001,0.0027294666666666666,0.009500666666666668,0.0015093333333333332,-0.0076448,0.006199866666666667,-0.109052,-0.008020933333333334,-0.07565933333333334,-0.046006533333333335,-0.020957200000000002,-0.04058506666666667
-0.0157712,-0.007270533333333333,0.008500666666666669,0.010509333333333334,-0.0126448,0.00019986666666666668,-0.108052,-0.006020933333333334,-0.07865933333333333,-0.05000653333333334,-0.0259572,-0.04458506666666667
-0.0247712,-0.015270533333333332,0.009500666666666668,0.019509333333333333,-0.0166448,-0.0028001333333333334,-0.10505199999999999,-0.004020933333333334,-0.08165933333333333,-0.054006533333333336,-0.0299572,-0.04758506666666667
-0.0337712,-0.024270533333333334,0.009500666666666668,0.028509333333333334,-0.0216448,-0.006800133333333333,-0.10305199999999999,-0.0020209333333333335,-0.08265933333333333,-0.05600653333333334,-0.0339572,-0.04858506666666667
-0.0397712,-0.030270533333333332,0.009500666666666668,0.03450933333333333,-0.0246448,-0.009800133333333334,-0.10105199999999999,0.0009790666666666663,-0.08365933333333334,-0.05800653333333334,-0.0349572,-0.05158506666666667
-0.0437712,-0.03427053333333333,0.009500666666666668,0.039509333333333334,-0.0256448,-0.011800133333333334,-0.10005199999999999,0.003979066666666666,-0.08465933333333334,-0.06000653333333334,-0.0359572,-0.05158506666666667
-0.0487712,-0.039270533333333336,0.009500666666666668,0.04350933333333333,-0.0286448,-0.014800133333333333,-0.099052,0.005979066666666666,-0.08565933333333334,-0.06000653333333334,-0.0369572,-0.05258506666666667
-0.0487712,-0.04127053333333333,0.007500666666666667,0.04550933333333333,-0.0276448,-0.015800133333333334,-0.097052,0.007979066666666666,-0.08565933333333334,-0.06000653333333334,-0.0369572,-0.05258506666666667
-0.0477712,-0.04327053333333333,0.004500666666666667,0.04550933333333333,-0.0256448,-0.018800133333333337,-0.096052,0.008979066666666667,-0.08565933333333334,-0.06100653333333334,-0.0379572,-0.05258506666666667
-0.0477712,-0.046270533333333336,0.0015006666666666666,0.04650933333333333,-0.0246448,-0.021800133333333336,-0.096052,0.009979066666666666,-0.08765933333333334,-0.06100653333333334,-0.038957200000000004,-0.053585066666666674
-0.0457712,-0.04827053333333333,-0.0024993333333333334,0.04650933333333333,-0.0216448,-0.024800133333333335,-0.095052,0.010979066666666667,-0.08865933333333334,-0.06100653333333334,-0.0409572,-0.053585066666666674
-0.0427712,-0.04727053333333334,-0.0044993333333333335,0.04550933333333333,-0.0186448,-0.024800133333333335,-0.094052,0.010979066666666667,-0.08965933333333334,-0.06000653333333334,-0.0429572,-0.053585066666666674
-0.0407712,-0.04727053333333334,-0.0064993333333333335,0.04350933333333333,-0.0166448,-0.026800133333333337,-0.095052,0.010979066666666667,-0.09065933333333334,-0.06000653333333334,-0.0449572,-0.05258506666666667
-0.0417712,-0.04827053333333333,-0.0064993333333333335,0.04550933333333333,-0.0166448,-0.026800133333333337,-0.094052,0.011979066666666666,-0.09065933333333334,-0.05800653333333334,-0.046957200000000004,-0.05158506666666667
-0.0417712,-0.04827053333333333,-0.0064993333333333335,0.04550933333333333,-0.0166448,-0.026800133333333337,-0.094052,0.011979066666666666,-0.09165933333333334,-0.05800653333333334,-0.0509572,-0.05058506666666667
-0.0437712,-0.05027053333333333,-0.0064993333333333335,0.04650933333333333,-0.0186448,-0.027800133333333334,-0.093052,0.011979066666666666,-0.09265933333333334,-0.05700653333333334,-0.0559572,-0.04858506666666667
-0.0467712,-0.053270533333333335,-0.0064993333333333335,0.04950933333333333,-0.0196448,-0.029800133333333336,-0.092052,0.010979066666666667,-0.09365933333333334,-0.05700653333333334,-0.061957200000000004,-0.04758506666666667
-0.0477712,-0.054270533333333336,-0.0064993333333333335,0.05150933333333333,-0.0196448,-0.029800133333333336,-0.092052,0.009979066666666666,-0.09365933333333334,-0.05700653333333334,-0.06695720000000001,-0.045585066666666674
-0.0497712,-0.05627053333333333,-0.0064993333333333335,0.05250933333333333,-0.0216448,-0.030800133333333337,-0.092052,0.007979066666666666,-0.09465933333333333,-0.05700653333333334,-0.0739572,-0.04458506666666667
-0.0517712,-0.05927053333333333,-0.0074993333333333335,0.055509333333333334,-0.0216448,-0.032800133333333335,-0.091052,0.005979066666666666,-0.09565933333333333,-0.05800653333333334,-0.0789572,-0.04458506666666667
-0.052771200000000004,-0.062270533333333336,-0.009499333333333332,0.05750933333333333,-0.0216448,-0.03580013333333334,-0.092052,0.0029790666666666666,-0.09765933333333333,-0.05800653333333334,-0.0839572,-0.04458506666666667
-0.0537712,-0.06427053333333334,-0.010499333333333333,0.05850933333333333,-0.0216448,-0.03680013333333334,-0.092052,0.0009790666666666663,-0.09765933333333333,-0.05900653333333334,-0.0889572,-0.04458506666666667
-0.0567712,-0.06727053333333334,-0.010499333333333333,0.06150933333333333,-0.0226448,-0.038800133333333334,-0.094052,-0.0020209333333333335,-0.09965933333333334,-0.06000653333333334,-0.0909572,-0.04358506666666667
-0.0567712,-0.06727053333333334,-0.010499333333333333,0.06150933333333333,-0.0226448,-0.038800133333333334,-0.095052,-0.005020933333333334,-0.10065933333333334,-0.06000653333333334,-0.0919572,-0.04258506666666667
-0.060771200000000004,-0.06927053333333333,-0.008499333333333333,0.06450933333333334,-0.0256448,-0.038800133333333334,-0.097052,-0.007020933333333334,-0.10265933333333334,-0.06000653333333334,-0.0929572,-0.04158506666666667
-0.0627712,-0.07027053333333333,-0.0074993333333333335,0.06650933333333334,-0.0276448,-0.038800133333333334,-0.098052,-0.009020933333333333,-0.10265933333333334,-0.06000653333333334,-0.0929572,-0.03958506666666667
-0.06677119999999999,-0.07227053333333333,-0.0054993333333333335,0.06950933333333333,-0.0306448,-0.038800133333333334,-0.10005199999999999,-0.010020933333333334,-0.10265933333333334,-0.05900653333333334,-0.0909572,-0.03658506666666667
-0.06777119999999999,-0.07127053333333333,-0.0034993333333333335,0.06950933333333333,-0.0316448,-0.03680013333333334,-0.10005199999999999,-0.010020933333333334,-0.10265933333333334,-0.05900653333333334,-0.0899572,-0.03358506666666667
-0.06977119999999999,-0.07227053333333333,-0.0024993333333333334,0.07050933333333333,-0.0336448,-0.03680013333333334,-0.10205199999999999,-0.011020933333333333,-0.10265933333333334,-0.05800653333333334,-0.0869572,-0.029585066666666666
-0.0717712,-0.07327053333333333,-0.0014993333333333334,0.07250933333333333,-0.0346448,-0.03680013333333334,-0.10205199999999999,-0.012020933333333334,-0.10265933333333334,-0.05700653333333334,-0.0839572,-0.025585066666666666
-0.0727712,-0.07227053333333333,0.0005006666666666666,0.07250933333333333,-0.036644800000000005,-0.03580013333333334,-0.10405199999999999,-0.013020933333333333,-0.10365933333333334,-0.05600653333333334,-0.08195720000000001,-0.020585066666666665
-0.0717712,-0.07227053333333333,-0.0004993333333333334,0.07250933333333333,-0.0346448,-0.03580013333333334,-0.10505199999999999,-0.015020933333333333,-0.10465933333333334,-0.055006533333333336,-0.0779572,-0.013585066666666666
-0.0717712,-0.07227053333333333,-0.0004993333333333334,0.07250933333333333,-0.0346448,-0.03580013333333334,-0.107052,-0.018020933333333333,-0.10665933333333334,-0.054006533333333336,-0.0749572,-0.006585066666666667
-0.07077119999999999,-0.07127053333333333,-0.0004993333333333334,0.07050933333333333,-0.0346448,-0.03580013333333334,-0.110052,-0.021020933333333332,-0.10865933333333334,-0.05100653333333334,-0.0699572,0.0014149333333333333
-0.06877119999999999,-0.06927053333333333,-0.0004993333333333334,0.06950933333333333,-0.0336448,-0.033800133333333336,-0.113052,-0.026020933333333333,-0.10965933333333334,-0.046006533333333335,-0.061957200000000004,0.013414933333333334
-0.07077119999999999,-0.06827053333333333,0.0025006666666666667,0.06950933333333333,-0.036644800000000005,-0.032800133333333335,-0.11705199999999999,-0.027020933333333334,-0.10765933333333334,-0.038006533333333335,-0.0519572,0.025414933333333334
-0.06977119999999999,-0.06627053333333334,0.0035006666666666667,0.06750933333333334,-0.036644800000000005,-0.030800133333333337,-0.12005199999999999,-0.025020933333333332,-0.09965933333333334,-0.024006533333333333,-0.0359572,0.041414933333333334
-0.06977119999999999,-0.06327053333333334,0.006500666666666667,0.06650933333333334,-0.037644800000000006,-0.027800133333333334,-0.12005199999999999,-0.01602093333333333,-0.08565933333333334,-0.0030065333333333336,-0.0159572,0.05841493333333333
-0.0647712,-0.05927053333333333,0.005500666666666667,0.06150933333333333,-0.0346448,-0.026800133333333337,-0.12005199999999999,0.0009790666666666663,-0.06265933333333333,0.026993466666666667,0.0130428,0.07941493333333334
-0.0577712,-0.054270533333333336,0.0035006666666666667,0.055509333333333334,-0.0306448,-0.024800133333333335,-0.11705199999999999,0.024979066666666667,-0.027659333333333334,0.06899346666666667,0.0500428,0.10341493333333333
-0.0487712,-0.05127053333333333,-0.0024993333333333334,0.04950933333333333,-0.0226448,-0.026800133333333337,-0.112052,0.05997906666666667,0.01834066666666667,0.12399346666666666,0.0980428,0.13141493333333332
-0.0357712,-0.04927053333333333,-0.013499333333333332,0.04250933333333333,-0.0106448,-0.030800133333333337,-0.107052,0.10597906666666668,0.07934066666666667,0.19199346666666667,0.1540428,0.16141493333333332
-0.018771200000000002,-0.04827053333333333,-0.029499333333333332,0.03350933333333333,0.0053552,-0.038800133333333334,-0.099052,0.16297906666666664,0.15234066666666668,0.2719934666666667,0.2210428,0.19341493333333332
0.0032288,-0.044270533333333334,-0.04749933333333333,0.019509333333333333,0.0243552,-0.04580013333333333,-0.08905199999999999,0.22797906666666665,0.23434066666666667,0.3599934666666667,0.2930428,0.22841493333333332
0.0292288,-0.04227053333333333,-0.07149933333333335,0.006509333333333333,0.050355199999999996,-0.056800133333333336,-0.076052,0.2989790666666667,0.32234066666666666,0.4489934666666667,0.3650428,0.2604149333333334
0.0562288,-0.045270533333333335,-0.10149933333333334,-0.005490666666666667,0.0783552,-0.07280013333333334,-0.061052,0.37597906666666664,0.4113406666666667,0.5289934666666667,0.4250428,0.28241493333333334
0.0822288,-0.05827053333333333,-0.14049933333333334,-0.011490666666666666,0.1113552,-0.09880013333333333,-0.041052,0.45797906666666666,0.49634066666666665,0.5919934666666666,0.46304280000000003,0.28741493333333334
0.10722880000000001,-0.08127053333333334,-0.18849933333333335,-0.012490666666666666,0.1473552,-0.13480013333333332,-0.013052,0.5449790666666666,0.5743406666666667,0.6259934666666667,0.4730428,0.27141493333333333
0.1282288,-0.11327053333333334,-0.24149933333333334,-0.006490666666666667,0.1853552,-0.17680013333333333,0.021948000000000002,0.6319790666666667,0.6373406666666668,0.6279934666666667,0.4500428,0.23141493333333332
0.14022880000000001,-0.15627053333333332,-0.29649933333333334,0.007509333333333333,0.2183552,-0.22580013333333332,0.062948,0.7119790666666667,0.6783406666666667,0.5889934666666667,0.3880428,0.16741493333333332
0.14222880000000002,-0.21027053333333334,-0.35249933333333333,0.03350933333333333,0.2463552,-0.28180013333333337,0.112948,0.7839790666666667,0.6943406666666667,0.5089934666666667,0.2900428,0.07941493333333334
0.1292288,-0.27727053333333335,-0.4064993333333333,0.07350933333333333,0.2673552,-0.34180013333333337,0.16994800000000002,0.8419790666666667,0.6813406666666667,0.3879934666666667,0.1540428,-0.03358506666666667
0.10122880000000001,-0.35227053333333336,-0.4534993333333333,0.12450933333333333,0.2763552,-0.40280013333333337,0.23294800000000002,0.8829790666666667,0.6393406666666668,0.23499346666666668,-0.0089572,-0.1615850666666667
0.0612288,-0.4282705333333333,-0.48949933333333334,0.18350933333333333,0.2753552,-0.45880013333333336,0.299948,0.9029790666666667,0.5693406666666667,0.05799346666666667,-0.18695720000000002,-0.2965850666666667
0.0092288,-0.4962705333333333,-0.5054993333333333,0.24350933333333333,0.2573552,-0.5008001333333334,0.365948,0.8989790666666667,0.4743406666666667,-0.1290065333333333,-0.3669572,-0.4275850666666667
-0.0517712,-0.5552705333333333,-0.5034993333333333,0.30350933333333335,0.2253552,-0.5288001333333333,0.427948,0.8689790666666667,0.3613406666666667,-0.31300653333333334,-0.5359572,-0.5435850666666666
-0.11777119999999999,-0.6012705333333334,-0.48349933333333334,0.35850933333333335,0.1823552,-0.5428001333333333,0.483948,0.8169790666666666,0.23734066666666667,-0.4850065333333333,-0.6869572,-0.6425850666666667
-0.1857712,-0.6372705333333334,-0.4514993333333333,0.4115093333333334,0.1323552,-0.5438001333333333,0.528948,0.7499790666666667,0.11034066666666667,-0.6370065333333333,-0.8149572,-0.7215850666666667
-0.2537712,-0.6592705333333333,-0.4054993333333333,0.4565093333333334,0.0753552,-0.5318001333333333,0.563948,0.6729790666666666,-0.011659333333333332,-0.7590065333333333,-0.9109572,-0.7775850666666667
-0.31377120000000003,-0.6652705333333333,-0.35149933333333333,0.48950933333333335,0.018355200000000002,-0.5078001333333334,0.588948,0.5929790666666667,-0.12065933333333334,-0.8480065333333333,-0.9749572000000001,-0.8085850666666666
-0.3647712,-0.6592705333333333,-0.29449933333333334,0.5115093333333334,-0.0346448,-0.4768001333333334,0.601948,0.5149790666666667,-0.21065933333333334,-0.9020065333333334,-1.0059572,-0.8135850666666666
-0.40577120000000005,-0.6422705333333334,-0.23649933333333334,0.5235093333333333,-0.0846448,-0.43880013333333334,0.604948,0.44597906666666665,-0.2796593333333333,-0.9270065333333334,-1.0109572,-0.8015850666666666
-0.4357712,-0.6212705333333334,-0.18549933333333335,0.5285093333333333,-0.1246448,-0.40280013333333337,0.602948,0.39097906666666665,-0.32665933333333336,-0.9270065333333334,-0.9969572000000001,-0.7785850666666667
-0.45377120000000004,-0.5962705333333334,-0.14249933333333334,0.5255093333333333,-0.1546448,-0.36880013333333334,0.595948,0.3509790666666667,-0.3536593333333333,-0.9080065333333334,-0.9659572000000001,-0.7455850666666667
-0.46277120000000005,-0.5692705333333333,-0.10649933333333335,0.5165093333333333,-0.17764480000000002,-0.33680013333333336,0.586948,0.32597906666666665,-0.36165933333333333,-0.8720065333333333,-0.9229572,-0.7055850666666666
-0.46077120000000005,-0.5382705333333333,-0.07749933333333334,0.49950933333333336,-0.1906448,-0.30680013333333334,0.577948,0.31397906666666664,-0.35665933333333333,-0.8260065333333333,-0.8719572000000001,-0.6595850666666666
-0.45377120000000004,-0.5042705333333334,-0.050499333333333334,0.47850933333333334,-0.2016448,-0.27680013333333336,0.570948,0.31197906666666664,-0.34165933333333337,-0.7740065333333334,-0.8139572,-0.6095850666666667
-0.43977120000000003,-0.46727053333333335,-0.027499333333333334,0.4535093333333334,-0.20564480000000002,-0.24680013333333334,0.567948,0.31797906666666664,-0.32065933333333335,-0.7190065333333333,-0.7559572000000001,-0.5575850666666666
-0.4267712,-0.4312705333333333,-0.0044993333333333335,0.42950933333333335,-0.21064480000000002,-0.2168001333333333,0.567948,0.32997906666666665,-0.29665933333333333,-0.6650065333333334,-0.6979572,-0.5045850666666667
-0.4117712,-0.39627053333333334,0.015500666666666668,0.4035093333333334,-0.2136448,-0.18980013333333332,0.570948,0.34397906666666667,-0.27365933333333337,-0.6140065333333333,-0.6429572000000001,-0.45458506666666665
-0.39577120000000005,-0.36127053333333337,0.034500666666666666,0.37850933333333336,-0.2146448,-0.16280013333333332,0.579948,0.3599790666666667,-0.25265933333333335,-0.5670065333333333,-0.5919572000000001,-0.40558506666666666
-0.38277120000000003,-0.32927053333333334,0.05350066666666667,0.35550933333333334,-0.2176448,-0.13780013333333332,0.592948,0.37597906666666664,-0.23365933333333333,-0.5230065333333334,-0.5459572,-0.3605850666666667
-0.3727712,-0.3032705333333333,0.06950066666666666,0.3375093333333334,-0.2206448,-0.11680013333333333,0.608948,0.39097906666666665,-0.21665933333333334,-0.4850065333333333,-0.5049572,-0.31958506666666664
-0.3637712,-0.27927053333333335,0.08450066666666667,0.32150933333333337,-0.2236448,-0.09680013333333334,0.628948,0.40397906666666666,-0.20165933333333333,-0.45000653333333335,-0.4689572,-0.28358506666666666
-0.3567712,-0.25927053333333333,0.09750066666666667,0.30750933333333336,-0.2266448,-0.08080013333333334,0.650948,0.4149790666666667,-0.18865933333333335,-0.4210065333333333,-0.4379572,-0.2515850666666667
-0.3497712,-0.24127053333333334,0.10850066666666666,0.29550933333333335,-0.2286448,-0.06580013333333333,0.676948,0.4239790666666667,-0.17865933333333334,-0.39500653333333335,-0.4129572,-0.2235850666666667
-0.3477712,-0.22927053333333333,0.11850066666666666,0.28850933333333334,-0.2326448,-0.054800133333333334,0.706948,0.4299790666666667,-0.16965933333333333,-0.37200653333333333,-0.3899572,-0.19958506666666667
-0.34277120000000005,-0.21527053333333335,0.12750066666666665,0.2795093333333334,-0.23464480000000001,-0.04280013333333334,0.7409479999999999,0.43397906666666664,-0.16265933333333335,-0.3510065333333333,-0.3679572,-0.17858506666666668
-0.33977120000000005,-0.20427053333333334,0.13550066666666666,0.2715093333333334,-0.23764480000000002,-0.033800133333333336,0.775948,0.43397906666666664,-0.15565933333333334,-0.33100653333333335,-0.3479572,-0.1595850666666667
-0.33577120000000005,-0.19327053333333333,0.14250066666666666,0.2645093333333334,-0.23864480000000002,-0.024800133333333335,0.813948,0.4309790666666667,-0.15165933333333334,-0.31300653333333334,-0.3299572,-0.14058506666666667
-0.33377120000000005,-0.18227053333333335,0.15150066666666667,0.25850933333333337,-0.24164480000000002,-0.014800133333333333,0.850948,0.4249790666666667,-0.14765933333333334,-0.2940065333333333,-0.3109572,-0.12358506666666666
-0.33177120000000004,-0.17327053333333334,0.15850066666666665,0.25250933333333336,-0.2446448,-0.006800133333333333,0.886948,0.4159790666666667,-0.14565933333333334,-0.2770065333333333,-0.29195720000000003,-0.10758506666666666
-0.32977120000000004,-0.16327053333333333,0.16650066666666666,0.24650933333333333,-0.2476448,0.0011998666666666667,0.920948,0.40397906666666666,-0.14565933333333334,-0.26000653333333335,-0.2739572,-0.09058506666666666
-0.32877120000000004,-0.15527053333333335,0.17350066666666666,0.24150933333333333,-0.2506448,0.009199866666666667,0.949948,0.38897906666666665,-0.14665933333333334,-0.24400653333333333,-0.2569572,-0.07658506666666666
-0.32777120000000004,-0.15027053333333334,0.17750066666666667,0.23850933333333332,-0.2526448,0.013199866666666667,0.973948,0.37097906666666663,-0.14965933333333334,-0.23000653333333332,-0.2409572,-0.06258506666666667
-0.32677120000000004,-0.14527053333333334,0.18150066666666667,0.23550933333333335,-0.2536448,0.018199866666666665,0.988948,0.34897906666666667,-0.15565933333333334,-0.21700653333333333,-0.2259572,-0.05058506666666667
-0.32277120000000004,-0.14327053333333334,0.17950066666666667,0.23250933333333335,-0.2506448,0.018199866666666665,0.991948,0.32197906666666665,-0.16365933333333335,-0.20700653333333333,-0.21395720000000001,-0.03958506666666667
-0.31677120000000003,-0.14127053333333334,0.17550066666666667,0.22850933333333334,-0.2466448,0.016199866666666667,0.980948,0.2909790666666667,-0.17365933333333333,-0.19700653333333332,-0.2019572,-0.029585066666666666
-0.3107712,-0.14127053333333334,0.16950066666666666,0.22550933333333334,-0.24064480000000002,0.013199866666666667,0.955948,0.25497906666666664,-0.18765933333333334,-0.18900653333333334,-0.1919572,-0.019585066666666668
-0.3037712,-0.14127053333333334,0.16250066666666665,0.22250933333333334,-0.2326448,0.010199866666666666,0.915948,0.21697906666666666,-0.20165933333333333,-0.18100653333333333,-0.1819572,-0.009585066666666666
-0.2907712,-0.13927053333333334,0.15150066666666667,0.21450933333333333,-0.2206448,0.006199866666666667,0.858948,0.17497906666666665,-0.21565933333333334,-0.17300653333333332,-0.1699572,0.0014149333333333333
-0.27577120000000005,-0.13627053333333333,0.13950066666666666,0.20550933333333332,-0.20764480000000002,0.0011998666666666667,0.786948,0.12997906666666664,-0.22965933333333335,-0.16400653333333332,-0.1579572,0.013414933333333334
-0.25877120000000003,-0.12927053333333333,0.12950066666666665,0.19350933333333334,-0.1936448,0.00019986666666666668,0.700948,0.08397906666666667,-0.24365933333333334,-0.15300653333333333,-0.1429572,0.028414933333333333
-0.2417712,-0.12227053333333333,0.11950066666666666,0.18150933333333333,-0.1806448,-0.0008001333333333333,0.604948,0.038979066666666666,-0.25465933333333335,-0.14000653333333332,-0.1259572,0.04341493333333333
-0.2237712,-0.11227053333333334,0.11150066666666666,0.16850933333333334,-0.1666448,0.00019986666666666668,0.500948,-0.004020933333333334,-0.26265933333333336,-0.12600653333333334,-0.1089572,0.06141493333333333
-0.2077712,-0.10427053333333333,0.10350066666666666,0.15650933333333333,-0.1546448,0.00019986666666666668,0.39694799999999997,-0.04302093333333333,-0.26865933333333336,-0.11000653333333334,-0.0899572,0.07941493333333334
-0.1887712,-0.09427053333333334,0.09450066666666666,0.14150933333333332,-0.14164480000000002,0.00019986666666666668,0.293948,-0.07702093333333333,-0.26965933333333336,-0.09200653333333333,-0.0709572,0.09741493333333334
-0.17277119999999999,-0.08427053333333333,0.08850066666666666,0.12750933333333334,-0.1306448,0.0011998666666666667,0.194948,-0.10602093333333333,-0.26865933333333336,-0.07500653333333333,-0.0509572,0.11541493333333334
-0.1577712,-0.07427053333333333,0.08350066666666667,0.11550933333333334,-0.12064480000000001,0.004199866666666667,0.10494800000000001,-0.12902093333333334,-0.26465933333333336,-0.055006533333333336,-0.0319572,0.13341493333333332
-0.1447712,-0.06627053333333334,0.07850066666666666,0.10550933333333333,-0.1116448,0.006199866666666667,0.023948,-0.14502093333333335,-0.25665933333333335,-0.03700653333333334,-0.013957200000000001,0.14941493333333333
-0.1307712,-0.05727053333333333,0.07350066666666666,0.09350933333333333,-0.10264480000000001,0.007199866666666667,-0.043052,-0.15402093333333336,-0.24765933333333334,-0.017006533333333334,0.0040428,0.16541493333333332
-0.11777119999999999,-0.04827053333333333,0.06950066666666666,0.08250933333333334,-0.0936448,0.010199866666666666,-0.099052,-0.15802093333333336,-0.23665933333333333,0.0009934666666666665,0.0210428,0.18041493333333333
-0.1047712,-0.04027053333333333,0.06450066666666666,0.07250933333333333,-0.0846448,0.012199866666666666,-0.14305199999999998,-0.15902093333333334,-0.22465933333333335,0.018993466666666667,0.0370428,0.19441493333333332
-0.0907712,-0.030270533333333332,0.06050066666666667,0.06050933333333333,-0.07564480000000001,0.015199866666666667,-0.179052,-0.15602093333333336,-0.21165933333333334,0.03599346666666666,0.0510428,0.20641493333333333
-0.0767712,-0.020270533333333333,0.05650066666666667,0.048509333333333335,-0.0666448,0.018199866666666665,-0.20705199999999999,-0.15202093333333336,-0.19965933333333333,0.05199346666666666,0.0640428,0.21941493333333334
-0.0647712,-0.011270533333333332,0.05350066666666667,0.03750933333333333,-0.058644800000000004,0.021199866666666664,-0.229052,-0.14802093333333335,-0.18865933333333335,0.06599346666666667,0.07604280000000001,0.22941493333333332
-0.0517712,-0.0012705333333333333,0.050500666666666666,0.025509333333333335,-0.051644800000000005,0.024199866666666667,-0.245052,-0.14302093333333335,-0.17865933333333334,0.07799346666666666,0.0860428,0.23941493333333333
-0.0397712,0.007729466666666667,0.04750066666666667,0.015509333333333335,-0.043644800000000004,0.027199866666666666,-0.259052,-0.14102093333333335,-0.17065933333333333,0.08899346666666666,0.0950428,0.24741493333333334
-0.0277712,0.016729466666666668,0.04450066666666667,0.004509333333333333,-0.036644800000000005,0.030199866666666665,-0.271052,-0.14002093333333335,-0.16465933333333335,0.09699346666666667,0.1020428,0.2544149333333333
-0.0177712,0.023729466666666667,0.04150066666666667,-0.002490666666666667,-0.0286448,0.03319986666666667,-0.281052,-0.14202093333333335,-0.16065933333333335,0.10499346666666666,0.1090428,0.2604149333333334
-0.006771200000000001,0.032729466666666665,0.03950066666666667,-0.012490666666666666,-0.0226448,0.036199866666666664,-0.29105200000000003,-0.14502093333333335,-0.15865933333333335,0.11099346666666667,0.1140428,0.2654149333333334
0.0002288000000000001,0.03772946666666667,0.03750066666666667,-0.018490666666666666,-0.0186448,0.037199866666666664,-0.30205200000000004,-0.14902093333333336,-0.15765933333333335,0.11499346666666667,0.1190428,0.2684149333333334
0.0062288,0.04372946666666667,0.03750066666666667,-0.024490666666666668,-0.0156448,0.04019986666666667,-0.31105200000000005,-0.15402093333333336,-0.15765933333333335,0.11999346666666666,0.12404280000000001,0.27241493333333333
0.0112288,0.04772946666666667,0.03650066666666667,-0.029490666666666665,-0.0126448,0.04219986666666667,-0.321052,-0.16102093333333334,-0.15865933333333335,0.12299346666666666,0.1290428,0.27641493333333333
0.0162288,0.05172946666666667,0.035500666666666666,-0.03349066666666667,-0.0096448,0.04319986666666666,-0.330052,-0.16702093333333334,-0.16065933333333335,0.12699346666666667,0.1330428,0.28041493333333334
0.0172288,0.05472946666666667,0.03750066666666667,-0.03549066666666667,-0.0096448,0.046199866666666665,-0.338052,-0.17302093333333335,-0.16165933333333335,0.13199346666666667,0.1390428,0.28641493333333334
0.0182288,0.056729466666666666,0.03850066666666667,-0.03649066666666667,-0.0096448,0.04819986666666667,-0.346052,-0.17802093333333335,-0.16365933333333335,0.13599346666666667,0.1450428,0.29241493333333335
0.0172288,0.057729466666666666,0.04050066666666667,-0.03649066666666667,-0.0106448,0.04919986666666667,-0.35505200000000003,-0.18302093333333336,-0.16465933333333335,0.14099346666666668,0.1510428,0.29841493333333335
0.0152288,0.05972946666666667,0.04450066666666667,-0.03649066666666667,-0.0136448,0.052199866666666664,-0.36305200000000004,-0.18702093333333336,-0.16565933333333335,0.14499346666666668,0.1570428,0.30641493333333336
0.0152288,0.06172946666666667,0.04650066666666667,-0.03849066666666667,-0.0156448,0.054199866666666666,-0.37105200000000005,-0.19102093333333334,-0.16665933333333333,0.1509934666666667,0.1650428,0.31541493333333337
0.0142288,0.06272946666666666,0.04850066666666667,-0.03849066666666667,-0.0166448,0.055199866666666667,-0.38005200000000006,-0.19602093333333334,-0.16765933333333333,0.1559934666666667,0.1720428,0.3244149333333334
0.0132288,0.06472946666666667,0.05150066666666667,-0.03849066666666667,-0.0186448,0.05819986666666667,-0.389052,-0.20102093333333335,-0.16865933333333333,0.16099346666666667,0.1790428,0.3334149333333334
0.0122288,0.06772946666666667,0.05550066666666667,-0.03949066666666667,-0.0216448,0.061199866666666665,-0.399052,-0.20502093333333335,-0.16865933333333333,0.16699346666666667,0.1880428,0.34541493333333334
0.0112288,0.06872946666666667,0.05750066666666667,-0.03949066666666667,-0.0226448,0.06319986666666666,-0.409052,-0.21002093333333335,-0.16765933333333333,0.17399346666666668,0.1970428,0.35641493333333335
0.0122288,0.07172946666666667,0.05950066666666667,-0.04149066666666667,-0.0226448,0.06619986666666666,-0.41805200000000003,-0.21402093333333336,-0.16665933333333333,0.17999346666666668,0.2050428,0.36841493333333336
0.0142288,0.07572946666666668,0.06150066666666667,-0.04449066666666667,-0.0226448,0.06919986666666667,-0.42805200000000004,-0.21902093333333336,-0.16465933333333335,0.1879934666666667,0.2150428,0.38041493333333337
0.0152288,0.07972946666666667,0.06450066666666666,-0.04749066666666667,-0.0246448,0.07219986666666667,-0.43805200000000005,-0.22402093333333334,-0.16265933333333335,0.19499346666666667,0.22404280000000001,0.3924149333333334
0.0182288,0.08572946666666667,0.06750066666666667,-0.05149066666666667,-0.0246448,0.07619986666666667,-0.447052,-0.22902093333333334,-0.16065933333333335,0.20399346666666668,0.2340428,0.40441493333333334
0.0202288,0.08972946666666667,0.06950066666666666,-0.05449066666666667,-0.0246448,0.07919986666666666,-0.457052,-0.23402093333333335,-0.15865933333333335,0.21099346666666668,0.2440428,0.41541493333333335
0.0252288,0.09672946666666667,0.07150066666666666,-0.06049066666666667,-0.0226448,0.08419986666666666,-0.467052,-0.24002093333333335,-0.15565933333333334,0.2199934666666667,0.2550428,0.42741493333333336
0.0302288,0.10372946666666667,0.07350066666666666,-0.06649066666666667,-0.0216448,0.08819986666666667,-0.47705200000000003,-0.24702093333333336,-0.15565933333333334,0.22799346666666667,0.2660428,0.43841493333333337
0.0362288,0.10972946666666666,0.07350066666666666,-0.07249066666666668,-0.0186448,0.09119986666666667,-0.48805200000000004,-0.25402093333333337,-0.15565933333333334,0.23599346666666668,0.2770428,0.4504149333333334
0.042228800000000004,0.11672946666666667,0.07450066666666666,-0.07849066666666667,-0.0156448,0.09619986666666666,-0.49905200000000005,-0.2630209333333334,-0.15665933333333334,0.2449934666666667,0.2880428,0.4604149333333334
0.050228800000000004,0.12572946666666668,0.07550066666666666,-0.08749066666666667,-0.0126448,0.10019986666666666,-0.5110520000000001,-0.2730209333333333,-0.15865933333333335,0.25199346666666667,0.2990428,0.47041493333333334
0.058228800000000004,0.13272946666666666,0.07450066666666666,-0.09549066666666667,-0.0076448,0.10319986666666667,-0.5230520000000001,-0.28202093333333333,-0.16065933333333335,0.2599934666666667,0.3090428,0.48041493333333335
0.0682288,0.14172946666666666,0.07350066666666666,-0.10449066666666668,-0.0016448,0.10819986666666667,-0.5350520000000001,-0.29102093333333334,-0.16365933333333335,0.2679934666666667,0.3210428,0.49041493333333336
0.07622880000000001,0.15072946666666667,0.07450066666666666,-0.11349066666666667,0.0013552,0.11219986666666666,-0.547052,-0.30102093333333335,-0.16465933333333335,0.2759934666666667,0.3310428,0.5004149333333333
0.0842288,0.15972946666666668,0.07550066666666666,-0.12249066666666668,0.0033552,0.11719986666666667,-0.560052,-0.31002093333333336,-0.16765933333333333,0.2849934666666667,0.3430428,0.5104149333333333
0.09322880000000001,0.16972946666666666,0.07650066666666666,-0.13149066666666667,0.0083552,0.12319986666666667,-0.572052,-0.31902093333333337,-0.16965933333333333,0.2929934666666667,0.3540428,0.5214149333333333
0.1002288,0.17672946666666667,0.07650066666666666,-0.13849066666666668,0.011355200000000001,0.12619986666666666,-0.584052,-0.3280209333333334,-0.17065933333333333,0.3009934666666667,0.3650428,0.5324149333333333
0.10922880000000001,0.18572946666666668,0.07650066666666666,-0.14749066666666666,0.015355200000000001,0.1301998666666667,-0.596052,-0.3360209333333333,-0.17065933333333333,0.31099346666666666,0.3770428,0.5444149333333334
0.11822880000000001,0.19572946666666668,0.07750066666666666,-0.15649066666666667,0.0203552,0.13619986666666667,-0.608052,-0.34302093333333333,-0.17265933333333333,0.31899346666666667,0.3890428,0.5554149333333334
0.1252288,0.20372946666666666,0.07850066666666666,-0.16449066666666667,0.0233552,0.14119986666666667,-0.621052,-0.35102093333333334,-0.17165933333333333,0.3279934666666667,0.40004280000000003,0.5674149333333334
0.1332288,0.21072946666666667,0.07750066666666666,-0.17149066666666668,0.0273552,0.14419986666666668,-0.6340520000000001,-0.35902093333333335,-0.17265933333333333,0.3349934666666667,0.4110428,0.5794149333333334
0.1382288,0.21472946666666667,0.07650066666666666,-0.17649066666666668,0.030355200000000002,0.14519986666666668,-0.6470520000000001,-0.36702093333333335,-0.17365933333333333,0.3419934666666667,0.4190428,0.5894149333333334
0.14622880000000002,0.22072946666666668,0.07450066666666666,-0.18349066666666666,0.035355199999999996,0.14719986666666668,-0.6600520000000001,-0.37402093333333336,-0.17465933333333333,0.3479934666666667,0.4270428,0.5984149333333334
0.1552288,0.22772946666666669,0.07250066666666666,-0.19149066666666667,0.041355199999999995,0.15019986666666668,-0.673052,-0.38102093333333337,-0.17665933333333333,0.3529934666666667,0.4340428,0.6074149333333334
0.1622288,0.23272946666666666,0.07050066666666666,-0.19749066666666668,0.0453552,0.15119986666666668,-0.686052,-0.3890209333333334,-0.17865933333333334,0.3579934666666667,0.4400428,0.6144149333333334
0.1652288,0.23572946666666666,0.07050066666666666,-0.20049066666666668,0.0473552,0.15319986666666668,-0.698052,-0.3960209333333334,-0.18065933333333334,0.3629934666666667,0.4450428,0.6224149333333334
0.1682288,0.23872946666666667,0.07050066666666666,-0.20349066666666668,0.048355199999999994,0.15419986666666669,-0.711052,-0.40302093333333333,-0.18365933333333334,0.3659934666666667,0.4500428,0.6294149333333333
0.17222880000000002,0.24372946666666667,0.07150066666666666,-0.20749066666666668,0.050355199999999996,0.1571998666666667,-0.723052,-0.40902093333333334,-0.18665933333333334,0.36999346666666666,0.4530428,0.6364149333333333
0.17422880000000002,0.24772946666666668,0.07350066666666666,-0.2104906666666667,0.050355199999999996,0.1601998666666667,-0.733052,-0.41602093333333334,-0.18865933333333335,0.37399346666666666,0.4560428,0.6434149333333333
0.17422880000000002,0.24972946666666668,0.07550066666666666,-0.21249066666666666,0.048355199999999994,0.1621998666666667,-0.743052,-0.42202093333333335,-0.19165933333333335,0.37799346666666667,0.46004280000000003,0.6504149333333333
0.17622880000000002,0.2537294666666667,0.07750066666666666,-0.21549066666666666,0.048355199999999994,0.1651998666666667,-0.752052,-0.42802093333333335,-0.19365933333333335,0.38199346666666667,0.46404280000000003,0.6574149333333333
0.17722880000000002,0.2567294666666667,0.07950066666666666,-0.21649066666666666,0.048355199999999994,0.16819986666666667,-0.7610520000000001,-0.43302093333333336,-0.19565933333333335,0.3859934666666667,0.46604280000000003,0.6644149333333333
0.17422880000000002,0.2557294666666667,0.08150066666666667,-0.21549066666666666,0.0453552,0.16819986666666667,-0.7690520000000001,-0.43802093333333336,-0.19765933333333335,0.3889934666666667,0.46804280000000004,0.6694149333333334
0.17422880000000002,0.2567294666666667,0.08250066666666667,-0.21549066666666666,0.0453552,0.16919986666666667,-0.7780520000000001,-0.44202093333333337,-0.19965933333333333,0.3919934666666667,0.4690428,0.6744149333333334
0.17622880000000002,0.2577294666666667,0.08150066666666667,-0.21649066666666666,0.0473552,0.16919986666666667,-0.7860520000000001,-0.44502093333333337,-0.20165933333333333,0.3949934666666667,0.4700428,0.6784149333333334
0.17922880000000002,0.2577294666666667,0.07850066666666666,-0.21849066666666667,0.050355199999999996,0.16819986666666667,-0.7930520000000001,-0.44802093333333337,-0.20265933333333333,0.3959934666666667,0.4690428,0.6804149333333334
0.18222880000000002,0.2577294666666667,0.07550066666666666,-0.21949066666666667,0.0533552,0.1661998666666667,-0.800052,-0.4510209333333334,-0.20465933333333333,0.3969934666666667,0.46704280000000004,0.6814149333333334
0.1842288,0.2557294666666667,0.07150066666666666,-0.21949066666666667,0.056355199999999994,0.1631998666666667,-0.808052,-0.4530209333333334,-0.20465933333333333,0.3969934666666667,0.46304280000000003,0.6814149333333334
0.1882288,0.2547294666666667,0.06650066666666667,-0.22149066666666667,0.0603552,0.1601998666666667,-0.814052,-0.4550209333333334,-0.20665933333333333,0.3949934666666667,0.45904280000000003,0.6794149333333334
0.1932288,0.2547294666666667,0.06150066666666667,-0.22449066666666667,0.0653552,0.1571998666666667,-0.818052,-0.4550209333333334,-0.20765933333333333,0.3939934666666667,0.4550428,0.6774149333333334
0.1972288,0.2547294666666667,0.05750066666666667,-0.22549066666666667,0.06935519999999999,0.1561998666666667,-0.821052,-0.4540209333333334,-0.20765933333333333,0.3919934666666667,0.4510428,0.6744149333333334
0.1972288,0.2517294666666667,0.05450066666666667,-0.22449066666666667,0.0713552,0.15319986666666668,-0.822052,-0.4500209333333334,-0.20565933333333333,0.3899934666666667,0.4450428,0.6714149333333334
0.1972288,0.2517294666666667,0.05450066666666667,-0.22449066666666667,0.0713552,0.15319986666666668,-0.821052,-0.44402093333333337,-0.20365933333333333,0.3879934666666667,0.4390428,0.6684149333333333
0.1942288,0.24872946666666668,0.05450066666666667,-0.22149066666666667,0.06935519999999999,0.15119986666666668,-0.818052,-0.43802093333333336,-0.20065933333333333,0.3869934666666667,0.4330428,0.6644149333333333
0.1902288,0.24672946666666667,0.05650066666666667,-0.21849066666666667,0.0663552,0.15119986666666668,-0.813052,-0.43102093333333336,-0.19765933333333335,0.38399346666666667,0.4250428,0.6604149333333333
0.18222880000000002,0.24172946666666667,0.05950066666666667,-0.21249066666666666,0.0603552,0.15019986666666668,-0.808052,-0.42302093333333335,-0.19365933333333335,0.38099346666666667,0.4150428,0.6564149333333333
0.17622880000000002,0.23972946666666667,0.06350066666666666,-0.20749066666666668,0.056355199999999994,0.15119986666666668,-0.801052,-0.41402093333333334,-0.18965933333333335,0.37799346666666667,0.40304280000000003,0.6514149333333333
0.1672288,0.23372946666666666,0.06650066666666667,-0.20049066666666668,0.050355199999999996,0.15019986666666668,-0.7940520000000001,-0.40502093333333333,-0.18565933333333334,0.37299346666666666,0.3900428,0.6454149333333333
0.1602288,0.22872946666666666,0.06850066666666667,-0.19449066666666667,0.0453552,0.14819986666666668,-0.7860520000000001,-0.3960209333333334,-0.18165933333333334,0.36899346666666666,0.3750428,0.6404149333333333
0.1542288,0.22472946666666668,0.07050066666666666,-0.18949066666666667,0.041355199999999995,0.14719986666666668,-0.7780520000000001,-0.38602093333333337,-0.17765933333333334,0.3629934666666667,0.3580428,0.6324149333333333
0.15022880000000002,0.22072946666666668,0.07050066666666666,-0.18549066666666666,0.0393552,0.14519986666666668,-0.7700520000000001,-0.37702093333333336,-0.17365933333333333,0.3549934666666667,0.34004280000000003,0.6244149333333333
0.14422880000000002,0.21472946666666667,0.07050066666666666,-0.17949066666666666,0.0363552,0.14219986666666667,-0.7610520000000001,-0.36702093333333335,-0.16965933333333333,0.3469934666666667,0.3220428,0.6164149333333334
0.14222880000000002,0.21072946666666667,0.06850066666666667,-0.17649066666666668,0.0363552,0.13919986666666667,-0.753052,-0.35802093333333335,-0.16565933333333335,0.3379934666666667,0.3050428,0.6074149333333334
0.1382288,0.20472946666666667,0.06650066666666667,-0.17149066666666668,0.035355199999999996,0.1351998666666667,-0.742052,-0.34902093333333334,-0.16165933333333335,0.3289934666666667,0.2890428,0.5964149333333334
0.1342288,0.19972946666666666,0.06550066666666667,-0.16749066666666668,0.033355199999999995,0.1321998666666667,-0.731052,-0.33802093333333333,-0.15765933333333335,0.31999346666666667,0.27604280000000003,0.5854149333333334
0.1312288,0.19472946666666668,0.06350066666666666,-0.16249066666666667,0.033355199999999995,0.1291998666666667,-0.720052,-0.3260209333333334,-0.15365933333333334,0.31199346666666666,0.2650428,0.5764149333333334
0.1272288,0.18972946666666668,0.06250066666666666,-0.15849066666666667,0.032355199999999994,0.12619986666666666,-0.707052,-0.31402093333333336,-0.14865933333333334,0.30499346666666666,0.2560428,0.5664149333333334
0.12022880000000001,0.18372946666666667,0.06350066666666666,-0.15249066666666666,0.0273552,0.12319986666666667,-0.694052,-0.30102093333333335,-0.14265933333333333,0.2989934666666667,0.2500428,0.5564149333333334
0.1142288,0.17772946666666667,0.06350066666666666,-0.14649066666666669,0.0243552,0.12019986666666667,-0.679052,-0.28702093333333334,-0.13565933333333333,0.2929934666666667,0.2430428,0.5474149333333334
0.10722880000000001,0.17272946666666666,0.06550066666666667,-0.14049066666666668,0.0203552,0.11819986666666667,-0.6640520000000001,-0.2720209333333333,-0.12865933333333335,0.2879934666666667,0.2390428,0.5374149333333333
0.10222880000000001,0.16872946666666666,0.06650066666666667,-0.13549066666666668,0.0173552,0.11719986666666667,-0.6460520000000001,-0.25702093333333337,-0.12165933333333334,0.2849934666666667,0.2360428,0.5294149333333333
0.0962288,0.16272946666666668,0.06650066666666667,-0.12949066666666667,0.0143552,0.11419986666666666,-0.6300520000000001,-0.24102093333333335,-0.11365933333333333,0.2799934666666667,0.2310428,0.5194149333333333
0.09222880000000001,0.15772946666666668,0.06550066666666667,-0.12549066666666667,0.0123552,0.11119986666666666,-0.612052,-0.22502093333333334,-0.10665933333333334,0.2759934666666667,0.22604280000000002,0.5094149333333333
0.08722880000000001,0.15172946666666667,0.06450066666666666,-0.11949066666666668,0.011355200000000001,0.10819986666666667,-0.594052,-0.20902093333333335,-0.09865933333333333,0.2709934666666667,0.2210428,0.49941493333333337
0.08522880000000001,0.14772946666666667,0.06250066666666666,-0.11649066666666667,0.011355200000000001,0.10519986666666667,-0.576052,-0.19302093333333334,-0.09165933333333334,0.2659934666666667,0.2150428,0.48941493333333336
0.0812288,0.14172946666666666,0.06050066666666667,-0.11149066666666667,0.009355200000000001,0.10019986666666666,-0.558052,-0.17802093333333335,-0.08565933333333334,0.2619934666666667,0.2090428,0.47841493333333335
0.07722880000000001,0.13472946666666666,0.05750066666666667,-0.10549066666666668,0.009355200000000001,0.09619986666666666,-0.5400520000000001,-0.16402093333333334,-0.07965933333333333,0.25599346666666667,0.2020428,0.46741493333333334
0.07422880000000001,0.12872946666666668,0.05450066666666667,-0.10149066666666667,0.009355200000000001,0.09119986666666667,-0.5230520000000001,-0.15102093333333336,-0.07465933333333334,0.2499934666666667,0.19504280000000002,0.4574149333333334
0.06922880000000001,0.12072946666666667,0.05150066666666667,-0.09549066666666667,0.0083552,0.08519986666666667,-0.5060520000000001,-0.13702093333333334,-0.07065933333333334,0.24199346666666668,0.1880428,0.4464149333333334
0.06922880000000001,0.11572946666666667,0.04650066666666667,-0.09249066666666667,0.011355200000000001,0.08119986666666666,-0.48905200000000004,-0.12502093333333333,-0.06665933333333333,0.23399346666666668,0.1790428,0.43641493333333337
0.0632288,0.10672946666666668,0.04350066666666667,-0.08449066666666667,0.009355200000000001,0.07519986666666667,-0.47305200000000003,-0.11302093333333334,-0.06365933333333333,0.22599346666666667,0.1710428,0.42541493333333336
0.0602288,0.09972946666666667,0.03950066666666667,-0.08049066666666667,0.009355200000000001,0.06919986666666667,-0.456052,-0.10102093333333334,-0.060659333333333336,0.2179934666666667,0.16204280000000001,0.41641493333333335
0.0562288,0.09172946666666668,0.035500666666666666,-0.07449066666666668,0.009355200000000001,0.06319986666666666,-0.44005200000000005,-0.08902093333333333,-0.05665933333333334,0.20799346666666668,0.1520428,0.40541493333333334
0.0522288,0.08472946666666667,0.03250066666666667,-0.06849066666666667,0.009355200000000001,0.05819986666666667,-0.42205200000000004,-0.07702093333333333,-0.05365933333333334,0.19999346666666667,0.1420428,0.3964149333333334
0.0472288,0.07672946666666666,0.029500666666666668,-0.062490666666666674,0.0083552,0.052199866666666664,-0.406052,-0.06402093333333334,-0.04965933333333334,0.1909934666666667,0.1330428,0.3874149333333334
0.0402288,0.06872946666666667,0.028500666666666667,-0.05449066666666667,0.0053552,0.04819986666666667,-0.387052,-0.05102093333333333,-0.045659333333333336,0.1829934666666667,0.1250428,0.37941493333333337
0.0372288,0.06372946666666666,0.02650066666666667,-0.05049066666666667,0.0053552,0.045199866666666665,-0.36905200000000005,-0.039020933333333334,-0.04165933333333334,0.17599346666666668,0.1170428,0.37141493333333336
0.0312288,0.057729466666666666,0.02650066666666667,-0.04449066666666667,0.0023552,0.04219986666666667,-0.35005200000000003,-0.027020933333333334,-0.037659333333333336,0.16999346666666668,0.1090428,0.36441493333333336
0.0242288,0.05272946666666667,0.028500666666666667,-0.03849066666666667,-0.0016448,0.04019986666666667,-0.331052,-0.014020933333333334,-0.03265933333333334,0.16299346666666667,0.1030428,0.35841493333333335
0.0182288,0.04772946666666667,0.029500666666666668,-0.03249066666666667,-0.0046448,0.039199866666666666,-0.31205200000000005,-0.0010209333333333337,-0.028659333333333332,0.1579934666666667,0.0970428,0.35341493333333335
0.0132288,0.04572946666666667,0.03250066666666667,-0.029490666666666665,-0.0096448,0.039199866666666666,-0.29405200000000004,0.010979066666666667,-0.02465933333333333,0.1529934666666667,0.0940428,0.34941493333333334
0.0092288,0.04372946666666667,0.034500666666666666,-0.026490666666666666,-0.0126448,0.039199866666666666,-0.275052,0.02297906666666667,-0.021659333333333333,0.14799346666666668,0.0900428,0.34441493333333334
0.0062288,0.041729466666666666,0.035500666666666666,-0.023490666666666667,-0.0136448,0.039199866666666666,-0.258052,0.03297906666666667,-0.018659333333333333,0.14399346666666668,0.0860428,0.34141493333333334
0.0042288,0.04272946666666667,0.03850066666666667,-0.023490666666666667,-0.0166448,0.04019986666666667,-0.242052,0.04197906666666667,-0.01665933333333333,0.13999346666666668,0.0820428,0.33741493333333333
0.0042288,0.04272946666666667,0.03850066666666667,-0.023490666666666667,-0.0166448,0.04019986666666667,-0.227052,0.04897906666666667,-0.015659333333333334,0.13699346666666667,0.0790428,0.3334149333333334
0.0042288,0.04272946666666667,0.03850066666666667,-0.023490666666666667,-0.0166448,0.04019986666666667,-0.214052,0.05597906666666667,-0.015659333333333334,0.13199346666666667,0.0750428,0.3294149333333334
0.0062288,0.04372946666666667,0.03750066666666667,-0.024490666666666668,-0.0156448,0.04019986666666667,-0.202052,0.06097906666666667,-0.015659333333333334,0.12799346666666667,0.0720428,0.3244149333333334
0.0082288,0.04472946666666667,0.03650066666666667,-0.026490666666666666,-0.0136448,0.04019986666666667,-0.189052,0.06397906666666667,-0.014659333333333333,0.12499346666666666,0.0680428,0.3214149333333334
0.0102288,0.04372946666666667,0.03350066666666667,-0.026490666666666666,-0.0106448,0.039199866666666666,-0.178052,0.06697906666666667,-0.014659333333333333,0.12299346666666666,0.0650428,0.31741493333333337
0.0102288,0.04372946666666667,0.03350066666666667,-0.026490666666666666,-0.0106448,0.039199866666666666,-0.167052,0.07097906666666667,-0.014659333333333333,0.11999346666666666,0.0610428,0.31441493333333337
0.0102288,0.04272946666666667,0.03250066666666667,-0.026490666666666666,-0.0106448,0.037199866666666664,-0.156052,0.07397906666666668,-0.014659333333333333,0.11799346666666667,0.0590428,0.31141493333333337
0.0072288,0.040729466666666665,0.03350066666666667,-0.023490666666666667,-0.0126448,0.037199866666666664,-0.14405199999999999,0.07697906666666667,-0.012659333333333333,0.11599346666666667,0.056042800000000004,0.30941493333333336
0.0052288,0.03872946666666667,0.03350066666666667,-0.021490666666666665,-0.0136448,0.036199866666666664,-0.133052,0.08197906666666667,-0.010659333333333333,0.11499346666666667,0.0540428,0.30741493333333336
0.0012288000000000002,0.03672946666666667,0.035500666666666666,-0.018490666666666666,-0.0166448,0.036199866666666664,-0.123052,0.08697906666666667,-0.008659333333333333,0.11399346666666667,0.0520428,0.30641493333333336
-0.0007711999999999999,0.033729466666666666,0.034500666666666666,-0.015490666666666666,-0.0166448,0.03419986666666667,-0.113052,0.09197906666666666,-0.005659333333333334,0.11299346666666667,0.0500428,0.30541493333333336
-0.005771200000000001,0.02972946666666667,0.035500666666666666,-0.011490666666666666,-0.0196448,0.03319986666666667,-0.10405199999999999,0.09597906666666667,-0.0036593333333333334,0.11199346666666667,0.0490428,0.30541493333333336
-0.006771200000000001,0.027729466666666668,0.034500666666666666,-0.009490666666666666,-0.0196448,0.031199866666666666,-0.097052,0.10097906666666667,-0.0016593333333333336,0.11099346666666667,0.0470428,0.30341493333333336
-0.0097712,0.02472946666666667,0.034500666666666666,-0.006490666666666667,-0.0216448,0.030199866666666665,-0.090052,0.10497906666666668,-0.0006593333333333336,0.10999346666666666,0.0460428,0.30241493333333336
-0.0107712,0.02172946666666667,0.03250066666666667,-0.005490666666666667,-0.0216448,0.027199866666666666,-0.08505199999999999,0.10797906666666666,-0.0006593333333333336,0.10899346666666666,0.0430428,0.30141493333333336
-0.0117712,0.019729466666666667,0.03150066666666667,-0.003490666666666667,-0.0216448,0.025199866666666664,-0.080052,0.10997906666666667,-0.0006593333333333336,0.10799346666666666,0.0420428,0.30141493333333336
-0.0127712,0.01772946666666667,0.03050066666666667,-0.002490666666666667,-0.0216448,0.024199866666666667,-0.076052,0.11297906666666667,-0.0016593333333333336,0.10799346666666666,0.0410428,0.30041493333333336
-0.0117712,0.016729466666666668,0.028500666666666667,-0.002490666666666667,-0.0196448,0.022199866666666665,-0.07305199999999999,0.11297906666666667,-0.0016593333333333336,0.10599346666666666,0.0400428,0.30041493333333336
-0.0127712,0.016729466666666668,0.029500666666666668,-0.002490666666666667,-0.0216448,0.022199866666666665,-0.07005199999999999,0.11497906666666667,-0.0026593333333333334,0.10499346666666666,0.0390428,0.30041493333333336
-0.0127712,0.016729466666666668,0.029500666666666668,-0.002490666666666667,-0.0216448,0.022199866666666665,-0.06805199999999999,0.11597906666666667,-0.0016593333333333336,0.10399346666666666,0.0370428,0.29941493333333336
-0.0147712,0.016729466666666668,0.03150066666666667,-0.0014906666666666668,-0.0226448,0.024199866666666667,-0.064052,0.11697906666666667,-0.0016593333333333336,0.10399346666666666,0.0370428,0.30041493333333336
-0.0167712,0.015729466666666667,0.03250066666666667,0.0005093333333333332,-0.0246448,0.024199866666666667,-0.061052,0.11897906666666667,-0.0006593333333333336,0.10499346666666666,0.0380428,0.30041493333333336
-0.0197712,0.014729466666666668,0.034500666666666666,0.0015093333333333332,-0.0276448,0.024199866666666667,-0.058052,0.11997906666666668,0.00034066666666666647,0.10599346666666666,0.0380428,0.30141493333333336
-0.0237712,0.013729466666666667,0.03750066666666667,0.004509333333333333,-0.0306448,0.025199866666666664,-0.055052000000000004,0.11997906666666668,0.0023406666666666667,0.10599346666666666,0.0390428,0.30241493333333336
-0.0257712,0.012729466666666668,0.03850066666666667,0.006509333333333333,-0.0316448,0.025199866666666664,-0.053052,0.12097906666666668,0.0033406666666666667,0.10699346666666666,0.0400428,0.30241493333333336
-0.0277712,0.011729466666666667,0.03950066666666667,0.007509333333333333,-0.0336448,0.025199866666666664,-0.052052,0.12097906666666668,0.005340666666666666,0.10899346666666666,0.0400428,0.30241493333333336
-0.0277712,0.011729466666666667,0.03950066666666667,0.007509333333333333,-0.0336448,0.025199866666666664,-0.051052,0.12097906666666668,0.005340666666666666,0.10999346666666666,0.0410428,0.30241493333333336
-0.026771200000000002,0.010729466666666668,0.03750066666666667,0.007509333333333333,-0.0316448,0.024199866666666667,-0.051052,0.11997906666666668,0.007340666666666666,0.11199346666666667,0.0430428,0.30141493333333336
-0.0237712,0.010729466666666668,0.034500666666666666,0.006509333333333333,-0.0286448,0.022199866666666665,-0.050052,0.11797906666666667,0.007340666666666666,0.11199346666666667,0.0440428,0.30141493333333336
-0.0197712,0.011729466666666667,0.03150066666666667,0.003509333333333333,-0.0256448,0.021199866666666664,-0.051052,0.11697906666666667,0.007340666666666666,0.11199346666666667,0.0450428,0.29941493333333336
-0.0147712,0.012729466666666668,0.02750066666666667,0.0005093333333333332,-0.0216448,0.019199866666666666,-0.051052,0.11397906666666667,0.006340666666666666,0.11199346666666667,0.0460428,0.29841493333333335
-0.0097712,0.013729466666666667,0.02350066666666667,-0.002490666666666667,-0.0166448,0.018199866666666665,-0.051052,0.11097906666666667,0.005340666666666666,0.11099346666666667,0.0470428,0.29641493333333335
-0.005771200000000001,0.013729466666666667,0.01950066666666667,-0.003490666666666667,-0.0126448,0.016199866666666667,-0.051052,0.10797906666666666,0.004340666666666666,0.10999346666666666,0.0470428,0.29541493333333335
0.0002288000000000001,0.016729466666666668,0.016500666666666667,-0.008490666666666665,-0.0076448,0.016199866666666667,-0.050052,0.10597906666666668,0.0033406666666666667,0.10899346666666666,0.048042800000000004,0.29341493333333335
0.0052288,0.01772946666666667,0.012500666666666669,-0.011490666666666666,-0.0036448,0.015199866666666667,-0.048052,0.10297906666666667,0.0023406666666666667,0.10799346666666666,0.048042800000000004,0.29241493333333335
0.0082288,0.01772946666666667,0.009500666666666668,-0.012490666666666666,-0.0006448000000000001,0.013199866666666667,-0.048052,0.10197906666666667,0.0023406666666666667,0.10799346666666666,0.0500428,0.29241493333333335
0.0102288,0.018729466666666666,0.008500666666666669,-0.014490666666666666,0.0013552,0.013199866666666667,-0.046052,0.09997906666666667,0.0013406666666666664,0.10899346666666666,0.0510428,0.29141493333333335
0.0102288,0.018729466666666666,0.008500666666666669,-0.014490666666666666,0.0013552,0.013199866666666667,-0.043052,0.09797906666666667,0.0023406666666666667,0.10899346666666666,0.0520428,0.29241493333333335
0.0072288,0.018729466666666666,0.011500666666666668,-0.012490666666666666,-0.0016448,0.015199866666666667,-0.040052,0.09897906666666667,0.004340666666666666,0.11099346666666667,0.056042800000000004,0.29341493333333335
0.0042288,0.018729466666666666,0.014500666666666669,-0.011490666666666666,-0.0046448,0.016199866666666667,-0.037052,0.09797906666666667,0.006340666666666666,0.11299346666666667,0.0580428,0.29441493333333335
-0.0007711999999999999,0.020729466666666668,0.021500666666666668,-0.009490666666666666,-0.0106448,0.021199866666666664,-0.035052,0.09797906666666667,0.009340666666666667,0.11499346666666667,0.0620428,0.29641493333333335
-0.004771200000000001,0.019729466666666667,0.024500666666666667,-0.006490666666666667,-0.0136448,0.022199866666666665,-0.032052,0.09697906666666667,0.011340666666666667,0.11699346666666667,0.0650428,0.29741493333333335
-0.0097712,0.020729466666666668,0.03050066666666667,-0.005490666666666667,-0.0196448,0.025199866666666664,-0.030052,0.09697906666666667,0.013340666666666667,0.11799346666666667,0.0670428,0.29941493333333336
-0.0117712,0.022729466666666667,0.034500666666666666,-0.005490666666666667,-0.0226448,0.028199866666666667,-0.029052,0.09697906666666667,0.016340666666666667,0.11899346666666666,0.0700428,0.30041493333333336
-0.0127712,0.023729466666666667,0.03650066666666667,-0.005490666666666667,-0.0246448,0.030199866666666665,-0.027052,0.09497906666666667,0.017340666666666667,0.11899346666666666,0.0710428,0.30041493333333336
-0.0127712,0.026729466666666667,0.03950066666666667,-0.006490666666666667,-0.0256448,0.03319986666666667,-0.026052,0.09397906666666667,0.01834066666666667,0.11799346666666667,0.0720428,0.30041493333333336
-0.0097712,0.02972946666666667,0.03950066666666667,-0.009490666666666666,-0.0246448,0.03419986666666667,-0.024052,0.09197906666666666,0.01934066666666667,0.11799346666666667,0.0730428,0.29941493333333336
-0.007771200000000001,0.03172946666666667,0.03950066666666667,-0.011490666666666666,-0.0226448,0.036199866666666664,-0.023052,0.09097906666666666,0.01934066666666667,0.11799346666666667,0.0740428,0.29741493333333335
-0.0027712,0.03572946666666667,0.03850066666666667,-0.015490666666666666,-0.0196448,0.037199866666666664,-0.021052,0.08897906666666668,0.021340666666666668,0.11799346666666667,0.0750428,0.29641493333333335
-0.0007711999999999999,0.03972946666666667,0.04050066666666667,-0.018490666666666666,-0.0196448,0.04019986666666667,-0.019052,0.08897906666666668,0.02234066666666667,0.11899346666666666,0.0780428,0.29541493333333335
0.0022288,0.04472946666666667,0.042500666666666666,-0.023490666666666667,-0.0196448,0.04319986666666666,-0.016052,0.08897906666666668,0.025340666666666668,0.11999346666666666,0.0810428,0.29441493333333335
0.0032288,0.049729466666666666,0.04650066666666667,-0.026490666666666666,-0.0216448,0.04819986666666667,-0.012052,0.08997906666666668,0.02734066666666667,0.12199346666666666,0.0840428,0.29541493333333335
0.0032288,0.05272946666666667,0.04950066666666667,-0.027490666666666667,-0.0226448,0.05119986666666666,-0.008052,0.09197906666666666,0.029340666666666668,0.12299346666666666,0.0880428,0.29541493333333335
0.0022288,0.056729466666666666,0.05450066666666667,-0.029490666666666665,-0.0256448,0.055199866666666667,-0.0030519999999999996,0.09297906666666667,0.033340666666666664,0.12499346666666666,0.0900428,0.29541493333333335
-0.0007711999999999999,0.06072946666666667,0.06150066666666667,-0.029490666666666665,-0.0306448,0.061199866666666665,0.0019480000000000005,0.09597906666666667,0.035340666666666666,0.12799346666666667,0.0940428,0.29541493333333335
-0.0017712,0.06672946666666667,0.06850066666666667,-0.03249066666666667,-0.0346448,0.06719986666666666,0.004948,0.09797906666666667,0.03834066666666666,0.12899346666666667,0.0980428,0.29641493333333335
-0.004771200000000001,0.06972946666666667,0.07450066666666666,-0.03249066666666667,-0.03964480000000001,0.07219986666666667,0.009948,0.10197906666666667,0.041340666666666664,0.12999346666666667,0.1010428,0.29641493333333335
-0.005771200000000001,0.07472946666666667,0.08050066666666666,-0.03349066666666667,-0.042644800000000004,0.07819986666666667,0.012948000000000001,0.10397906666666668,0.043340666666666666,0.13099346666666667,0.1030428,0.29641493333333335
-0.004771200000000001,0.07972946666666667,0.08450066666666667,-0.03649066666666667,-0.043644800000000004,0.08219986666666666,0.014948000000000001,0.10597906666666668,0.04534066666666667,0.13099346666666667,0.1050428,0.29741493333333335
-0.0017712,0.08772946666666667,0.08950066666666666,-0.04249066666666667,-0.045644800000000006,0.08819986666666667,0.014948000000000001,0.10697906666666666,0.04634066666666666,0.13099346666666667,0.10804280000000001,0.29741493333333335
0.0002288000000000001,0.09272946666666666,0.09250066666666666,-0.04549066666666667,-0.045644800000000006,0.09319986666666667,0.014948000000000001,0.10697906666666666,0.04734066666666666,0.13199346666666667,0.1110428,0.29941493333333336
0.0052288,0.10172946666666667,0.09650066666666667,-0.05349066666666667,-0.045644800000000006,0.09919986666666666,0.011948,0.10497906666666668,0.048340666666666664,0.13199346666666667,0.1140428,0.30041493333333336
0.0102288,0.10872946666666666,0.09850066666666667,-0.05949066666666667,-0.043644800000000004,0.10319986666666667,0.008948000000000001,0.10197906666666667,0.049340666666666665,0.13199346666666667,0.1160428,0.30241493333333336
0.0162288,0.11772946666666667,0.10150066666666666,-0.06649066666666667,-0.042644800000000004,0.10919986666666667,0.003948,0.09697906666666667,0.049340666666666665,0.13199346666666667,0.1190428,0.30341493333333336
0.0232288,0.12572946666666668,0.10250066666666666,-0.07449066666666668,-0.03964480000000001,0.11419986666666666,-0.0010519999999999996,0.09197906666666666,0.050340666666666666,0.13199346666666667,0.1210428,0.30441493333333336
0.028228800000000002,0.13072946666666668,0.10250066666666666,-0.07849066666666667,-0.036644800000000005,0.11719986666666667,-0.008052,0.08597906666666667,0.049340666666666665,0.13199346666666667,0.12404280000000001,0.30541493333333336
0.034228800000000004,0.13672946666666666,0.10250066666666666,-0.08449066666666667,-0.0336448,0.12019986666666667,-0.015052,0.08097906666666667,0.050340666666666666,0.13199346666666667,0.1260428,0.30641493333333336
0.0412288,0.14072946666666666,0.09950066666666667,-0.09049066666666668,-0.0286448,0.12019986666666667,-0.021052,0.07497906666666666,0.049340666666666665,0.13299346666666667,0.1290428,0.30641493333333336
0.0462288,0.14472946666666667,0.09850066666666667,-0.09549066666666667,-0.0256448,0.12119986666666667,-0.026052,0.06997906666666667,0.049340666666666665,0.13299346666666667,0.13004280000000001,0.30541493333333336
0.050228800000000004,0.14372946666666667,0.09350066666666666,-0.09649066666666667,-0.0216448,0.11819986666666667,-0.031052,0.06597906666666667,0.048340666666666664,0.13099346666666667,0.13104280000000001,0.30441493333333336
0.0552288,0.14472946666666667,0.08950066666666666,-0.09949066666666667,-0.0166448,0.11719986666666667,-0.036052,0.06197906666666667,0.04634066666666666,0.13099346666666667,0.13104280000000001,0.30341493333333336
0.0612288,0.14472946666666667,0.08350066666666667,-0.10249066666666667,-0.0106448,0.11419986666666666,-0.039052,0.05997906666666667,0.04434066666666667,0.12899346666666667,0.13104280000000001,0.30141493333333336
0.0672288,0.14272946666666667,0.07550066666666666,-0.10449066666666668,-0.0036448,0.10919986666666667,-0.040052,0.05797906666666667,0.041340666666666664,0.12699346666666667,0.13004280000000001,0.29741493333333335
0.07022880000000001,0.14172946666666666,0.07150066666666666,-0.10549066666666668,-0.0006448000000000001,0.10619986666666667,-0.042052,0.05697906666666667,0.040340666666666664,0.12499346666666666,0.1290428,0.29541493333333335
0.07322880000000001,0.13772946666666666,0.06450066666666666,-0.10549066666666668,0.0033552,0.10019986666666666,-0.041052,0.05697906666666667,0.03734066666666667,0.12099346666666666,0.1280428,0.29241493333333335
0.07422880000000001,0.13372946666666666,0.05950066666666667,-0.10449066666666668,0.0063552,0.09619986666666666,-0.040052,0.05697906666666667,0.03634066666666667,0.11799346666666667,0.1260428,0.28841493333333335
0.07322880000000001,0.12872946666666668,0.05550066666666667,-0.10149066666666667,0.0083552,0.09119986666666667,-0.038052,0.05697906666666667,0.033340666666666664,0.11399346666666667,0.1220428,0.28541493333333334
0.07122880000000001,0.12272946666666668,0.05150066666666667,-0.09649066666666667,0.009355200000000001,0.08719986666666667,-0.035052,0.05797906666666667,0.03234066666666666,0.10899346666666666,0.1190428,0.27941493333333334
0.0672288,0.11472946666666667,0.04750066666666667,-0.09049066666666668,0.009355200000000001,0.08119986666666666,-0.031052,0.05797906666666667,0.029340666666666668,0.10499346666666666,0.1150428,0.27441493333333333
0.0622288,0.10472946666666667,0.042500666666666666,-0.08349066666666667,0.009355200000000001,0.07319986666666667,-0.027052,0.05797906666666667,0.02734066666666667,0.09999346666666667,0.1110428,0.2674149333333334
0.0532288,0.09272946666666666,0.03950066666666667,-0.07249066666666668,0.0063552,0.06619986666666666,-0.023052,0.05897906666666667,0.024340666666666667,0.09399346666666666,0.10704280000000001,0.2604149333333334
0.0442288,0.08072946666666667,0.03650066666666667,-0.062490666666666674,0.0033552,0.05819986666666667,-0.017052,0.05797906666666667,0.021340666666666668,0.08899346666666666,0.1020428,0.2524149333333333
0.0362288,0.06772946666666667,0.03150066666666667,-0.05149066666666667,0.0023552,0.04919986666666667,-0.012052,0.05597906666666667,0.01934066666666667,0.08299346666666667,0.0960428,0.24441493333333333
0.028228800000000002,0.05472946666666667,0.02650066666666667,-0.04149066666666667,0.0013552,0.04019986666666667,-0.006052,0.05597906666666667,0.015340666666666667,0.07699346666666666,0.0890428,0.23441493333333333
0.0202288,0.03872946666666667,0.01850066666666667,-0.029490666666666665,0.0013552,0.028199866666666667,-5.1999999999999604e-05,0.054979066666666666,0.011340666666666667,0.06999346666666667,0.0830428,0.22441493333333332
0.0122288,0.02572946666666667,0.013500666666666668,-0.018490666666666666,-0.0006448000000000001,0.019199866666666666,0.003948,0.05197906666666667,0.008340666666666668,0.06299346666666666,0.07604280000000001,0.21441493333333334
0.0062288,0.010729466666666668,0.004500666666666667,-0.008490666666666665,0.0013552,0.007199866666666667,0.008948000000000001,0.05097906666666667,0.0033406666666666667,0.055993466666666665,0.0680428,0.20341493333333333
0.0002288000000000001,-0.0012705333333333333,-0.0014993333333333334,0.0005093333333333332,0.0013552,-0.0008001333333333333,0.011948,0.04897906666666667,-0.0006593333333333336,0.048993466666666666,0.0610428,0.19341493333333332
-0.0027712,-0.011270533333333332,-0.008499333333333333,0.006509333333333333,0.0023552,-0.009800133333333334,0.013948,0.04597906666666667,-0.0036593333333333334,0.041993466666666666,0.0540428,0.18341493333333334
-0.007771200000000001,-0.023270533333333333,-0.015499333333333332,0.015509333333333335,0.0033552,-0.018800133333333337,0.015948,0.04497906666666667,-0.006659333333333334,0.03599346666666666,0.0470428,0.17441493333333333
-0.0107712,-0.03227053333333333,-0.021499333333333332,0.021509333333333335,0.0053552,-0.026800133333333337,0.016948,0.04397906666666667,-0.008659333333333333,0.029993466666666666,0.0420428,0.16541493333333332
-0.0147712,-0.04027053333333333,-0.025499333333333332,0.027509333333333334,0.0053552,-0.032800133333333335,0.017948000000000002,0.04397906666666667,-0.010659333333333333,0.025993466666666666,0.0370428,0.15741493333333334
-0.0177712,-0.046270533333333336,-0.02849933333333333,0.031509333333333334,0.0053552,-0.03680013333333334,0.019948,0.04397906666666667,-0.011659333333333332,0.021993466666666666,0.0330428,0.15041493333333333
-0.0177712,-0.04927053333333333,-0.03149933333333333,0.03350933333333333,0.0063552,-0.039800133333333335,0.020948,0.04497906666666667,-0.011659333333333332,0.018993466666666667,0.0300428,0.14441493333333333
-0.0177712,-0.052270533333333334,-0.03449933333333333,0.03450933333333333,0.0083552,-0.04280013333333334,0.022948,0.04497906666666667,-0.010659333333333333,0.015993466666666668,0.0280428,0.13741493333333332
-0.0177712,-0.053270533333333335,-0.035499333333333334,0.03450933333333333,0.0083552,-0.04480013333333334,0.023948,0.04797906666666667,-0.010659333333333333,0.012993466666666667,0.0260428,0.13141493333333332
-0.0167712,-0.05627053333333333,-0.03949933333333333,0.03650933333333333,0.011355200000000001,-0.047800133333333335,0.026948,0.04997906666666667,-0.008659333333333333,0.010993466666666667,0.0250428,0.12641493333333334
-0.0167712,-0.05627053333333333,-0.03949933333333333,0.03650933333333333,0.011355200000000001,-0.047800133333333335,0.029948000000000002,0.05297906666666667,-0.006659333333333334,0.009993466666666668,0.0250428,0.12141493333333334
-0.0147712,-0.05527053333333334,-0.04049933333333333,0.03450933333333333,0.0123552,-0.047800133333333335,0.033948,0.054979066666666666,-0.004659333333333334,0.008993466666666667,0.0240428,0.11641493333333335
-0.0137712,-0.05627053333333333,-0.04249933333333333,0.03450933333333333,0.0143552,-0.048800133333333336,0.037948,0.05797906666666667,-0.0026593333333333334,0.007993466666666667,0.0240428,0.11141493333333334
-0.0117712,-0.05527053333333334,-0.043499333333333334,0.03350933333333333,0.015355200000000001,-0.048800133333333336,0.041948,0.05997906666666667,0.00034066666666666647,0.0059934666666666666,0.0230428,0.10641493333333334
-0.0107712,-0.05627053333333333,-0.045499333333333336,0.03350933333333333,0.0173552,-0.05080013333333334,0.045948,0.06297906666666667,0.0023406666666666667,0.0029934666666666665,0.0230428,0.10241493333333333
-0.0097712,-0.05727053333333333,-0.04749933333333333,0.03350933333333333,0.018355200000000002,-0.05180013333333334,0.048948,0.06497906666666667,0.004340666666666666,0.0019934666666666665,0.0220428,0.09741493333333334
-0.0087712,-0.05827053333333333,-0.04949933333333333,0.03350933333333333,0.0203552,-0.05380013333333333,0.051948,0.06697906666666667,0.005340666666666666,-6.533333333333502e-06,0.0210428,0.09241493333333334
-0.007771200000000001,-0.060270533333333334,-0.052499333333333335,0.03350933333333333,0.0213552,-0.056800133333333336,0.055948000000000005,0.06697906666666667,0.007340666666666666,-0.0030065333333333336,0.0190428,0.08841493333333333
-0.004771200000000001,-0.060270533333333334,-0.05549933333333333,0.031509333333333334,0.0243552,-0.05780013333333334,0.058948,0.06697906666666667,0.008340666666666668,-0.006006533333333334,0.0180428,0.08341493333333334
-0.0017712,-0.062270533333333336,-0.060499333333333336,0.031509333333333334,0.0293552,-0.06080013333333334,0.062948,0.06697906666666667,0.009340666666666667,-0.009006533333333334,0.0150428,0.07841493333333334
-0.0007711999999999999,-0.06327053333333334,-0.06249933333333333,0.031509333333333334,0.030355200000000002,-0.06280013333333334,0.064948,0.06697906666666667,0.008340666666666668,-0.012006533333333333,0.0130428,0.07341493333333333
0.0012288000000000002,-0.06527053333333334,-0.06649933333333334,0.031509333333333334,0.033355199999999995,-0.06580013333333333,0.06794800000000001,0.06597906666666667,0.008340666666666668,-0.015006533333333334,0.0110428,0.06741493333333334
0.0022288,-0.06627053333333334,-0.06849933333333334,0.031509333333333334,0.035355199999999996,-0.06680013333333333,0.06894800000000001,0.06297906666666667,0.006340666666666666,-0.017006533333333334,0.0090428,0.06341493333333333
0.0042288,-0.06827053333333333,-0.07249933333333335,0.031509333333333334,0.0383552,-0.06980013333333333,0.07094800000000001,0.06097906666666667,0.005340666666666666,-0.020006533333333333,0.0070428,0.05941493333333333
0.0042288,-0.06927053333333333,-0.07349933333333335,0.031509333333333334,0.0383552,-0.07180013333333334,0.07094800000000001,0.05797906666666667,0.0033406666666666667,-0.022006533333333335,0.0040428,0.05441493333333333
0.0042288,-0.07127053333333333,-0.07549933333333333,0.03350933333333333,0.0393552,-0.07280013333333334,0.07094800000000001,0.05697906666666667,0.0013406666666666664,-0.024006533333333333,0.0020427999999999996,0.05141493333333333
0.0042288,-0.07227053333333333,-0.07649933333333334,0.03350933333333333,0.0393552,-0.07480013333333334,0.07094800000000001,0.054979066666666666,0.00034066666666666647,-0.026006533333333335,0.0010427999999999998,0.04641493333333333
0.0032288,-0.07427053333333333,-0.07749933333333334,0.03450933333333333,0.0393552,-0.07580013333333334,0.07194800000000001,0.05297906666666667,-0.0016593333333333336,-0.027006533333333332,4.2799999999999726e-05,0.04241493333333333
0.0022288,-0.07527053333333333,-0.07749933333333334,0.03650933333333333,0.0393552,-0.07580013333333334,0.07194800000000001,0.05197906666666667,-0.0016593333333333336,-0.028006533333333333,4.2799999999999726e-05,0.03841493333333333
0.0002288000000000001,-0.07927053333333334,-0.07949933333333334,0.039509333333333334,0.0393552,-0.07880013333333334,0.07294800000000001,0.04997906666666667,-0.0026593333333333334,-0.029006533333333334,-0.0009572000000000003,0.03441493333333333
-0.0007711999999999999,-0.07927053333333334,-0.07849933333333334,0.039509333333333334,0.0383552,-0.07880013333333334,0.07294800000000001,0.04897906666666667,-0.0036593333333333334,-0.030006533333333335,-0.0009572000000000003,0.029414933333333334
-0.0027712,-0.08027053333333334,-0.07749933333333334,0.040509333333333335,0.0363552,-0.07880013333333334,0.07494800000000001,0.04997906666666667,-0.0026593333333333334,-0.031006533333333332,-0.0019572000000000005,0.025414933333333334
-0.005771200000000001,-0.08227053333333334,-0.07649933333333334,0.04350933333333333,0.035355199999999996,-0.07880013333333334,0.07594800000000002,0.04797906666666667,-0.0026593333333333334,-0.03200653333333334,-0.0019572000000000005,0.021414933333333334
-0.005771200000000001,-0.07927053333333334,-0.07349933333333335,0.04250933333333333,0.033355199999999995,-0.07580013333333334,0.077948,0.046979066666666666,-0.0026593333333333334,-0.03300653333333334,-0.0019572000000000005,0.018414933333333335
-0.007771200000000001,-0.07727053333333334,-0.06949933333333334,0.04250933333333333,0.030355200000000002,-0.07280013333333334,0.077948,0.04397906666666667,-0.004659333333333334,-0.03300653333333334,-0.0009572000000000003,0.018414933333333335
-0.0107712,-0.07427053333333333,-0.06349933333333334,0.04250933333333333,0.026355200000000002,-0.06880013333333333,0.077948,0.04197906666666667,-0.004659333333333334,-0.031006533333333332,0.0010427999999999998,0.019414933333333335
-0.0117712,-0.07027053333333333,-0.058499333333333334,0.040509333333333335,0.0233552,-0.06380013333333334,0.079948,0.04097906666666667,-0.0026593333333333334,-0.028006533333333333,0.0050428,0.022414933333333335
-0.0127712,-0.06327053333333334,-0.050499333333333334,0.03750933333333333,0.018355200000000002,-0.056800133333333336,0.079948,0.03997906666666667,0.0023406666666666667,-0.021006533333333334,0.0120428,0.028414933333333333
-0.0147712,-0.05827053333333333,-0.043499333333333334,0.03650933333333333,0.0143552,-0.05080013333333334,0.08194800000000001,0.04397906666666667,0.011340666666666667,-0.008006533333333333,0.0240428,0.03641493333333333
-0.0117712,-0.04927053333333333,-0.037499333333333336,0.030509333333333336,0.0123552,-0.04280013333333334,0.08494800000000001,0.05397906666666667,0.028340666666666667,0.013993466666666668,0.0410428,0.04741493333333333
-0.0097712,-0.04327053333333333,-0.03349933333333333,0.025509333333333335,0.011355200000000001,-0.038800133333333334,0.08894800000000001,0.06997906666666667,0.05534066666666666,0.04399346666666666,0.0660428,0.06141493333333333
-0.0037712,-0.037270533333333335,-0.03349933333333333,0.019509333333333333,0.0143552,-0.03580013333333334,0.093948,0.09597906666666667,0.09434066666666667,0.08599346666666667,0.1000428,0.07941493333333334
0.0042288,-0.03227053333333333,-0.036499333333333335,0.013509333333333335,0.0203552,-0.033800133333333336,0.10194800000000001,0.13297906666666665,0.14634066666666667,0.14199346666666668,0.1440428,0.10041493333333334
0.0142288,-0.030270533333333332,-0.044499333333333335,0.007509333333333333,0.0293552,-0.03680013333333334,0.110948,0.17897906666666666,0.21234066666666668,0.21199346666666669,0.1990428,0.12441493333333334
0.0312288,-0.026270533333333332,-0.05749933333333333,-0.002490666666666667,0.0443552,-0.041800133333333336,0.12294800000000002,0.23797906666666666,0.2903406666666667,0.2949934666666667,0.2630428,0.15341493333333334
0.0512288,-0.022270533333333332,-0.07349933333333335,-0.014490666666666666,0.0623552,-0.047800133333333335,0.134948,0.3039790666666667,0.38034066666666666,0.3869934666666667,0.33404280000000003,0.18441493333333334
0.07522880000000001,-0.01827053333333333,-0.09349933333333334,-0.027490666666666667,0.08435519999999999,-0.054800133333333334,0.14794800000000002,0.37797906666666664,0.4763406666666667,0.4799934666666667,0.4050428,0.21441493333333334
0.10222880000000001,-0.01827053333333333,-0.12049933333333335,-0.04149066666666667,0.1113552,-0.06880013333333333,0.165948,0.45797906666666666,0.5743406666666667,0.5639934666666667,0.46604280000000003,0.23541493333333333
0.1332288,-0.026270533333333332,-0.15949933333333335,-0.05349066666666667,0.1463552,-0.09280013333333334,0.187948,0.5439790666666666,0.6663406666666667,0.6309934666666667,0.5070428,0.24141493333333333
0.1582288,-0.045270533333333335,-0.20349933333333334,-0.05649066666666667,0.1803552,-0.12380013333333334,0.216948,0.6339790666666667,0.7493406666666668,0.6689934666666667,0.5190427999999999,0.22541493333333332
0.1842288,-0.07427053333333333,-0.2584993333333333,-0.05449066666666667,0.2213552,-0.16580013333333332,0.253948,0.7219790666666667,0.8153406666666667,0.6719934666666667,0.4990428,0.18741493333333334
0.1992288,-0.11527053333333334,-0.3144993333333333,-0.04149066666666667,0.2573552,-0.21380013333333334,0.295948,0.8039790666666666,0.8583406666666668,0.6339934666666667,0.4410428,0.12341493333333334
0.20522880000000002,-0.16727053333333333,-0.3724993333333333,-0.018490666666666666,0.28835520000000003,-0.26980013333333336,0.346948,0.8749790666666667,0.8703406666666668,0.5519934666666667,0.3450428,0.03441493333333333
0.1982288,-0.23227053333333333,-0.43049933333333334,0.016509333333333334,0.31435520000000006,-0.33080013333333336,0.405948,0.9329790666666666,0.8513406666666667,0.4259934666666667,0.2120428,-0.07958506666666666
0.17422880000000002,-0.3042705333333333,-0.47849933333333333,0.06450933333333334,0.3263552,-0.39080013333333335,0.469948,0.9699790666666667,0.8003406666666667,0.2659934666666667,0.0500428,-0.20958506666666668
0.1362288,-0.3802705333333333,-0.5164993333333333,0.12150933333333333,0.3263552,-0.44780013333333335,0.538948,0.9859790666666667,0.7193406666666667,0.08099346666666667,-0.1289572,-0.34958506666666667
0.08622880000000001,-0.45127053333333333,-0.5374993333333333,0.18150933333333333,0.31135520000000005,-0.49480013333333334,0.606948,0.9749790666666667,0.6103406666666668,-0.11600653333333334,-0.3109572,-0.4855850666666667
0.0252288,-0.5132705333333334,-0.5384993333333333,0.24350933333333333,0.2813552,-0.5258001333333333,0.669948,0.9369790666666666,0.4823406666666667,-0.31000653333333333,-0.48395720000000003,-0.6105850666666667
-0.0437712,-0.5662705333333333,-0.5224993333333333,0.30450933333333335,0.2393552,-0.5438001333333333,0.725948,0.8749790666666667,0.3433406666666667,-0.49300653333333333,-0.6419572000000001,-0.7175850666666667
-0.11377119999999999,-0.6052705333333334,-0.49149933333333334,0.35850933333333335,0.1883552,-0.5488001333333333,0.773948,0.7979790666666666,0.20034066666666667,-0.6550065333333334,-0.7759572000000001,-0.8045850666666666
-0.1827712,-0.6322705333333334,-0.4494993333333333,0.4065093333333334,0.1323552,-0.5408001333333333,0.811948,0.7109790666666667,0.06434066666666667,-0.7880065333333334,-0.8809572000000001,-0.8715850666666667
-0.2447712,-0.6452705333333334,-0.4004993333333333,0.44450933333333337,0.0773552,-0.5228001333333333,0.837948,0.6209790666666667,-0.05765933333333334,-0.8870065333333333,-0.9539572000000001,-0.9125850666666667
-0.2967712,-0.6442705333333334,-0.3474993333333333,0.4695093333333334,0.0243552,-0.49580013333333334,0.852948,0.5349790666666666,-0.15965933333333335,-0.9500065333333333,-0.9939572000000001,-0.9305850666666666
-0.33677120000000005,-0.6332705333333334,-0.29649933333333334,0.48450933333333335,-0.0196448,-0.46480013333333337,0.858948,0.45797906666666666,-0.23865933333333333,-0.9830065333333333,-1.0089572,-0.9305850666666666
-0.3687712,-0.6192705333333334,-0.25049933333333335,0.49350933333333336,-0.058644800000000004,-0.43480013333333334,0.857948,0.39597906666666666,-0.2926593333333333,-0.9900065333333333,-1.0029572,-0.9185850666666666
-0.38777120000000004,-0.5992705333333334,-0.21149933333333334,0.49350933333333336,-0.08764480000000001,-0.40480013333333337,0.851948,0.3519790666666667,-0.32465933333333336,-0.9780065333333333,-0.9819572000000001,-0.8975850666666667
-0.39877120000000005,-0.5772705333333333,-0.17849933333333334,0.48750933333333335,-0.1096448,-0.37780013333333334,0.843948,0.32497906666666665,-0.33665933333333337,-0.9490065333333333,-0.9469572,-0.8695850666666667
-0.39877120000000005,-0.5492705333333333,-0.15049933333333335,0.4745093333333334,-0.12364480000000001,-0.3488001333333334,0.834948,0.31297906666666664,-0.33165933333333336,-0.9080065333333334,-0.9019572000000001,-0.8335850666666667
-0.39377120000000004,-0.5192705333333334,-0.12549933333333335,0.4565093333333334,-0.1336448,-0.32180013333333335,0.828948,0.30997906666666664,-0.31665933333333335,-0.8590065333333333,-0.8499572000000001,-0.7945850666666666
-0.38377120000000003,-0.48627053333333337,-0.10249933333333335,0.43550933333333336,-0.1396448,-0.2938001333333334,0.823948,0.31697906666666664,-0.29365933333333333,-0.8070065333333334,-0.7949572,-0.7505850666666667
-0.3727712,-0.45327053333333334,-0.08049933333333334,0.4125093333333334,-0.14564480000000002,-0.26680013333333336,0.822948,0.32797906666666665,-0.26865933333333336,-0.7540065333333333,-0.7399572000000001,-0.7055850666666666
-0.3587712,-0.41827053333333336,-0.059499333333333335,0.3885093333333334,-0.1486448,-0.23780013333333333,0.826948,0.34197906666666666,-0.24165933333333334,-0.7030065333333333,-0.6849572,-0.6625850666666666
-0.3467712,-0.38627053333333333,-0.03949933333333333,0.36650933333333335,-0.1536448,-0.21280013333333334,0.835948,0.3579790666666667,-0.21665933333333334,-0.6540065333333334,-0.6329572000000001,-0.6195850666666667
-0.33377120000000005,-0.35427053333333336,-0.02049933333333333,0.3435093333333334,-0.1566448,-0.1868001333333333,0.848948,0.37297906666666664,-0.19265933333333335,-0.6090065333333333,-0.5839572000000001,-0.5805850666666666
-0.32277120000000004,-0.32627053333333333,-0.0034993333333333335,0.32450933333333337,-0.1596448,-0.16480013333333332,0.865948,0.38797906666666665,-0.16965933333333333,-0.5660065333333333,-0.5389572,-0.5455850666666666
-0.3127712,-0.3022705333333333,0.010500666666666669,0.30750933333333336,-0.1606448,-0.14480013333333333,0.888948,0.40097906666666666,-0.14865933333333334,-0.5290065333333334,-0.4999572,-0.5145850666666667
-0.3067712,-0.28227053333333335,0.024500666666666667,0.29450933333333335,-0.1656448,-0.12880013333333332,0.914948,0.41197906666666667,-0.12865933333333335,-0.49600653333333333,-0.4649572,-0.4885850666666667
-0.3017712,-0.26627053333333334,0.035500666666666666,0.2835093333333334,-0.1686448,-0.11480013333333333,0.946948,0.4219790666666667,-0.11165933333333333,-0.4660065333333333,-0.4349572,-0.46658506666666666
-0.2957712,-0.2512705333333333,0.04450066666666667,0.2735093333333334,-0.1696448,-0.10280013333333334,0.981948,0.4279790666666667,-0.09765933333333333,-0.44100653333333334,-0.4089572,-0.44958506666666664
-0.2917712,-0.24027053333333334,0.05150066666666667,0.2655093333333334,-0.17164480000000001,-0.09380013333333334,1.018948,0.4329790666666667,-0.08565933333333334,-0.4190065333333333,-0.3859572,-0.43458506666666663
-0.2907712,-0.23127053333333333,0.05950066666666667,0.26150933333333337,-0.17464480000000002,-0.08480013333333333,1.0569480000000002,0.4329790666666667,-0.07465933333333334,-0.39900653333333336,-0.3669572,-0.4215850666666667
-0.2887712,-0.22127053333333332,0.06750066666666667,0.2555093333333333,-0.17764480000000002,-0.07580013333333334,1.094948,0.4309790666666667,-0.06565933333333333,-0.37900653333333334,-0.3479572,-0.40958506666666666
-0.2877712,-0.21327053333333335,0.07450066666666666,0.25050933333333336,-0.1806448,-0.06880013333333333,1.1319480000000002,0.4249790666666667,-0.058659333333333334,-0.3620065333333333,-0.3299572,-0.39758506666666665
