1,-64,-65,31.5,33,-64.5,118,125,39,-46,-89,-123
-15,-65,-50,40,17.5,-58.5,128,124,31,-59,-84,-117
-27,-61,-34,44,3.5,-48.5,131,118,20,-68,-81,-110
-31,-53,-22,42,-5.5,-38.5,126,108,9,-70,-82,-103
-25,-40,-15,32.5,-5,-28.5,112,94,-3,-65,-86,-99
-10,-26,-16,18,3,-21,96,79,-17,-56,-89,-97
6,-7,-13,0.5,9.5,-10,81,68,-24,-44,-86,-96
17,11,-6,-14,12.5,3.5,68,59,-24,-32,-78,-93
18,23,5,-20.5,7.5,14,59,53,-23,-23,-64,-88
13,29,16,-21,-1.5,23.5,54,49,-21,-21,-49,-81
1,30,29,-15.5,-14,30.5,54,45,-18,-23,-33,-71
-10,31,41,-10.5,-25.5,36,54,41,-17,-27,-22,-62
-16,34,50,-9,-33,42,49,35,-17,-29,-18,-54
-17,38,55,-10.5,-36,46.5,40,26,-19,-26,-19,-50
-11,45,56,-17,-33.5,50.5,27,15,-22,-19,-25,-49
2,57,55,-29.5,-26.5,56,11,4,-25,-7,-32,-50
18,71,53,-44.5,-17.5,62,-4,-7,-28,4,-34,-51
28,80,52,-54,-12,66,-16,-16,-30,11,-31,-53
30,82,52,-56,-11,67,-21,-21,-31,11,-24,-53
25,79,54,-52,-14.5,67.5,-19,-20,-29,8,-13,-51
13,74,61,-43.5,-24,68.5,-14,-17,-25,2,-3,-46
0,67,67,-33.5,-33.5,67,-8,-16,-23,-5,1,-40
-9,63,72,-27,-40.5,67.5,-5,-17,-24,-11,2,-36
-11,64,75,-26.5,-43,69.5,-7,-20,-26,-12,-2,-34
-4,69,73,-32.5,-38.5,71,-14,-26,-31,-8,-11,-35
8,77,69,-42.5,-30.5,73,-24,-33,-35,-1,-21,-39
21,84,63,-52.5,-21,74.5,-34,-39,-39,6,-26,-44
30,88,58,-59,-14,73,-39,-42,-39,11,-24,-47
31,88,57,-59.5,-13,73.5,-39,-42,-38,12,-18,-48
25,85,60,-55,-17.5,73.5,-34,-38,-36,8,-9,-46
13,80,67,-46.5,-27,74.5,-26,-33,-32,0,0,-42
0,73,73,-36.5,-36.5,73,-19,-28,-28,-6,5,-37
-9,69,78,-30,-43.5,73.5,-14,-26,-27,-11,5,-33
-11,68,79,-28.5,-45,73.5,-14,-28,-29,-12,0,-31
-5,71,76,-33,-40.5,73.5,-20,-32,-32,-8,-9,-32
6,78,72,-42,-33,75,-29,-39,-36,0,-19,-36
21,86,65,-53.5,-22,76.5,-38,-44,-39,7,-24,-41
30,91,61,-60.5,-15.5,76,-43,-47,-41,12,-25,-45
32,91,59,-61.5,-13.5,75,-43,-47,-40,12,-20,-47
26,88,62,-57,-18,75,-38,-43,-37,9,-11,-46
14,82,68,-48,-27,75,-29,-37,-33,2,-2,-42
1,75,74,-38,-36.5,75.5,-21,-32,-30,-5,2,-37
-8,71,79,-31.5,-43.5,75,-16,-29,-28,-10,3,-32
-10,71,81,-30.5,-45.5,76,-16,-30,-28,-11,-1,-30
-4,76,80,-36,-42,78,-22,-34,-31,-6,-10,-31
7,82,75,-44.5,-34,79.5,-32,-41,-36,0,-21,-36
21,88,67,-54.5,-23,78.5,-40,-46,-39,6,-27,-42
30,92,62,-61,-16,77,-46,-49,-41,11,-28,-46
32,93,61,-62.5,-14.5,77,-46,-49,-41,12,-22,-48
27,90,63,-58.5,-18,77.5,-40,-44,-37,9,-12,-46
15,84,69,-49.5,-27,77.5,-32,-38,-32,3,-2,-42
1,77,76,-39,-37.5,77.5,-24,-34,-29,-4,2,-37
-8,73,81,-32.5,-44.5,77,-19,-32,-28,-9,2,-33
-11,71,82,-30,-46.5,76.5,-19,-32,-29,-10,-3,-32
-6,73,79,-33.5,-42.5,76,-25,-37,-33,-7,-13,-34
5,81,76,-43,-35.5,79.5,-34,-43,-37,0,-22,-39
19,89,70,-54,-25.5,80.5,-42,-48,-39,8,-26,-43
29,93,64,-61,-17.5,79.5,-46,-50,-40,13,-26,-47
32,93,61,-62.5,-14.5,77,-47,-49,-39,14,-20,-49
26,89,63,-57.5,-18.5,76,-41,-45,-36,10,-12,-48
14,84,70,-49,-28,77,-33,-39,-31,3,-2,-44
0,77,77,-38.5,-38.5,77,-24,-34,-28,-3,2,-39
-10,73,83,-31.5,-46.5,78,-19,-31,-27,-9,1,-35
-12,73,85,-30.5,-48.5,79,-19,-32,-27,-9,-3,-33
-4,78,82,-37,-43,80,-24,-35,-30,-5,-11,-33
9,85,76,-47,-33.5,81.5,-33,-41,-34,1,-21,-38
20,90,70,-55,-25,80,-43,-47,-38,8,-27,-44
30,95,65,-62.5,-17.5,80,-47,-49,-39,14,-26,-47
32,95,63,-63.5,-15.5,79,-46,-47,-37,15,-20,-49
24,89,65,-56.5,-20.5,77,-41,-44,-35,10,-12,-48
12,83,71,-47.5,-29.5,77,-32,-37,-30,4,-2,-44
-1,75,76,-37,-38.5,75.5,-22,-32,-26,-3,2,-38
-8,71,79,-31.5,-43.5,75,-17,-30,-24,-8,2,-34
-9,72,81,-31.5,-45,76.5,-19,-31,-26,-9,-3,-33
-2,76,78,-37,-40,77,-25,-36,-29,-5,-12,-35
10,83,73,-46.5,-31.5,78,-34,-42,-33,1,-22,-39
21,88,67,-54.5,-23,78.5,-42,-48,-37,8,-28,-45
27,91,64,-59,-18.5,78.5,-47,-51,-38,14,-28,-48
32,95,63,-63.5,-15.5,79,-46,-48,-36,16,-21,-48
28,93,65,-60.5,-18.5,79,-41,-43,-32,12,-12,-46
15,86,71,-50.5,-28,79.5,-32,-38,-28,5,-3,-43
1,79,78,-40,-38.5,79.5,-24,-33,-25,-2,2,-38
-8,75,83,-33.5,-45.5,79,-19,-30,-23,-7,3,-34
-11,74,85,-31.5,-48,79.5,-19,-32,-24,-7,-2,-32
-7,78,85,-35.5,-46,81.5,-24,-36,-28,-4,-12,-34
5,85,80,-45,-37.5,83.5,-33,-42,-32,1,-22,-38
19,92,73,-55.5,-27,83.5,-42,-47,-35,9,-27,-43
28,96,68,-62,-20,82,-47,-49,-36,14,-27,-47
31,96,65,-63.5,-17,81.5,-46,-48,-34,14,-20,-48
26,92,66,-59,-20,79,-40,-43,-31,9,-12,-46
14,86,72,-50,-29,79,-32,-37,-27,1,-3,-42
0,78,78,-39,-39,78,-24,-33,-24,-6,0,-38
-9,74,83,-32.5,-46,78.5,-19,-30,-23,-11,0,-34
-11,74,85,-31.5,-48,79.5,-19,-31,-24,-12,-5,-32
-6,77,83,-35.5,-44.5,80,-24,-36,-28,-9,-15,-35
6,84,78,-45,-36,81,-33,-41,-31,-1,-24,-39
21,93,72,-57,-25.5,83.5,-41,-46,-34,6,-29,-43
32,99,67,-65.5,-17.5,83,-45,-49,-36,11,-29,-47
33,98,65,-65.5,-16,82.5,-45,-48,-35,11,-25,-49
26,94,68,-60,-21,81,-40,-45,-32,7,-16,-48
12,87,75,-49.5,-31.5,81,-32,-39,-28,0,-6,-44
-1,79,80,-39,-40.5,79.5,-23,-34,-25,-7,-1,-39
-10,75,85,-32.5,-47.5,80,-18,-31,-24,-13,0,-34
-13,76,89,-31.5,-51,82.5,-17,-32,-24,-15,-5,-32
-6,80,86,-37,-46,83,-22,-35,-26,-11,-14,-34
6,87,81,-46.5,-37.5,84,-31,-41,-31,-4,-24,-38
20,94,74,-57,-27,84,-40,-46,-34,2,-29,-43
28,99,71,-63.5,-21.5,85,-44,-48,-35,7,-29,-47
30,99,69,-64.5,-19.5,84,-44,-48,-35,7,-24,-50
25,95,70,-60,-22.5,83.5,-39,-44,-31,2,-15,-48
13,88,75,-50.5,-31,82.5,-30,-38,-27,-4,-5,-43
0,82,82,-41,-41,82,-21,-33,-23,-12,-1,-38
-10,78,88,-34,-49,83,-16,-30,-22,-17,0,-34
-12,77,89,-32.5,-50.5,83,-16,-30,-23,-18,-7,-32
-6,81,87,-37.5,-46.5,84,-22,-35,-26,-15,-17,-34
5,87,82,-46,-38.5,85.5,-31,-41,-30,-8,-27,-39
19,94,75,-56.5,-28,85.5,-39,-46,-34,-1,-32,-44
27,98,71,-62.5,-22,85.5,-45,-49,-36,3,-32,-48
29,99,70,-64,-20.5,85.5,-45,-48,-34,3,-27,-50
24,96,72,-60,-24,84,-38,-43,-31,0,-18,-48
12,90,78,-51,-33,84,-30,-37,-27,-8,-8,-44
0,85,85,-42.5,-42.5,85,-21,-31,-23,-16,-2,-39
-10,79,89,-34.5,-49.5,84,-17,-29,-22,-22,-4,-35
-14,77,91,-31.5,-52.5,84,-18,-31,-24,-24,-11,-34
-6,85,91,-39.5,-48.5,88,-22,-34,-26,-19,-19,-35
7,92,85,-49.5,-39,89.5,-30,-40,-30,-12,-28,-38
20,97,77,-58.5,-28.5,87,-39,-45,-33,-5,-34,-44
29,102,73,-65.5,-22,88.5,-44,-47,-35,0,-34,-48
31,102,71,-66.5,-20,87.5,-43,-46,-34,0,-29,-50
24,98,74,-61,-25,86,-38,-42,-31,-5,-20,-48
12,91,79,-51.5,-33.5,85,-29,-36,-27,-13,-10,-44
0,83,83,-41.5,-41.5,83,-21,-31,-24,-22,-5,-39
-10,79,89,-34.5,-49.5,84,-16,-29,-22,-27,-6,-36
-13,78,91,-32.5,-52,84.5,-16,-30,-24,-28,-12,-34
-8,81,89,-36.5,-48.5,85,-22,-34,-27,-26,-21,-37
3,88,85,-45.5,-41,87.5,-31,-41,-32,-19,-32,-41
18,96,78,-57,-30,87,-39,-46,-35,-12,-38,-46
28,100,72,-64,-22,86,-45,-48,-37,-7,-38,-50
30,100,70,-65,-20,85,-44,-47,-36,-7,-33,-52
26,97,71,-61.5,-22.5,84,-38,-43,-33,-12,-24,-50
12,90,78,-51,-33,84,-30,-37,-29,-20,-14,-46
-1,83,84,-41,-42.5,83.5,-22,-32,-26,-29,-9,-41
-10,79,89,-34.5,-49.5,84,-16,-30,-25,-35,-9,-36
-10,79,89,-34.5,-49.5,84,-16,-31,-27,-38,-14,-35
-4,83,87,-39.5,-45.5,85,-22,-35,-31,-36,-23,-36
5,90,85,-47.5,-40,88.5,-30,-41,-35,-28,-33,-40
19,97,78,-58,-29.5,88.5,-38,-46,-38,-21,-38,-46
29,100,71,-64.5,-21,86.5,-43,-49,-40,-17,-38,-49
30,99,69,-64.5,-19.5,84,-43,-47,-40,-17,-32,-51
24,96,72,-60,-24,84,-37,-43,-37,-22,-23,-50
11,89,78,-50,-33.5,84.5,-28,-38,-34,-29,-13,-45
-2,80,82,-39,-42,81,-19,-32,-31,-37,-8,-40
-12,75,87,-31.5,-49.5,81,-14,-30,-30,-43,-8,-36
-15,75,90,-30,-52.5,82.5,-15,-32,-32,-45,-15,-35
-8,79,87,-35.5,-47.5,83,-21,-37,-36,-42,-25,-37
4,87,83,-45.5,-39.5,85,-29,-43,-41,-34,-35,-42
19,94,75,-56.5,-28,85.5,-36,-48,-45,-26,-40,-47
30,96,66,-63,-18,81,-42,-49,-46,-21,-39,-50
32,95,63,-63.5,-15.5,79,-43,-48,-45,-20,-32,-52
27,92,65,-59.5,-19,79.5,-36,-44,-42,-24,-23,-50
14,86,72,-50,-29,79,-27,-38,-38,-31,-13,-45
0,78,78,-39,-39,78,-20,-34,-36,-40,-8,-41
-9,74,83,-32.5,-46,78.5,-14,-31,-35,-44,-8,-36
-10,74,84,-32,-47,79,-14,-32,-37,-44,-13,-35
-4,77,81,-36.5,-42.5,79,-19,-37,-41,-41,-23,-37
7,83,76,-45,-34.5,80.5,-29,-44,-46,-34,-33,-41
21,89,68,-55,-23.5,79.5,-38,-50,-50,-26,-38,-47
31,93,62,-62,-15.5,78.5,-43,-52,-52,-21,-38,-51
32,92,60,-62,-14,76,-44,-52,-52,-20,-32,-53
27,88,61,-57.5,-17,75.5,-39,-48,-49,-24,-22,-51
14,81,67,-47.5,-26.5,74,-30,-42,-45,-30,-12,-46
0,73,73,-36.5,-36.5,73,-21,-37,-42,-37,-5,-41
-9,70,79,-30.5,-44,74.5,-15,-35,-41,-42,-4,-36
-10,71,81,-30.5,-45.5,76,-14,-35,-42,-41,-8,-33
-3,76,79,-36.5,-41,77.5,-21,-40,-45,-36,-16,-34
9,82,73,-45.5,-32,78.5,-30,-46,-50,-28,-26,-38
22,90,68,-56,-23,79,-39,-50,-53,-19,-31,-44
30,92,62,-61,-16,77,-44,-53,-55,-13,-31,-48
29,90,61,-59.5,-16,76.5,-45,-54,-55,-13,-26,-51
25,86,61,-55.5,-18,74.5,-40,-50,-52,-17,-16,-49
14,80,66,-47,-26,73,-29,-42,-47,-23,-5,-44
2,74,72,-38,-35,73,-20,-36,-43,-29,0,-38
-6,71,77,-32.5,-41.5,74,-15,-33,-42,-33,1,-34
-8,70,78,-31,-43,74,-16,-35,-43,-34,-4,-33
-3,73,76,-35,-39.5,74.5,-21,-40,-46,-30,-13,-35
8,79,71,-43.5,-31.5,75,-31,-45,-51,-22,-22,-39
20,85,65,-52.5,-22.5,75,-40,-51,-54,-14,-27,-45
31,88,57,-59.5,-13,73.5,-44,-53,-56,-8,-27,-50
35,91,56,-63,-10.5,74.5,-44,-52,-54,-7,-20,-51
29,88,59,-58.5,-15,74.5,-39,-47,-50,-10,-10,-49
15,79,64,-47,-24.5,72.5,-30,-41,-46,-17,0,-45
1,72,71,-36.5,-35,72.5,-21,-36,-42,-24,4,-40
-6,69,75,-31.5,-40.5,72,-16,-33,-40,-29,4,-35
-7,70,77,-31.5,-42,73.5,-17,-35,-41,-30,0,-34
0,73,73,-36.5,-36.5,73,-23,-39,-45,-25,-9,-36
10,79,69,-44.5,-29.5,74,-31,-44,-48,-17,-19,-40
22,84,62,-53,-20,73,-40,-49,-52,-9,-26,-46
30,88,58,-59,-14,73,-45,-52,-52,-3,-26,-51
34,89,55,-61.5,-10.5,72,-44,-50,-51,-2,-20,-52
28,84,56,-56,-14,70,-38,-45,-47,-6,-11,-51
13,77,64,-45,-25.5,71.5,-29,-39,-42,-13,-1,-46
0,70,70,-35,-35,70,-21,-35,-39,-20,4,-41
-7,68,75,-30.5,-41,71.5,-16,-32,-37,-24,5,-36
-9,69,78,-30,-43.5,73.5,-16,-32,-37,-25,0,-34
-4,72,76,-34,-40,74,-22,-36,-40,-21,-9,-35
7,78,71,-42.5,-32,75.5,-31,-42,-45,-13,-19,-40
22,84,62,-53,-20,73,-39,-47,-48,-5,-25,-46
32,89,57,-60.5,-12.5,73,-44,-50,-49,0,-26,-50
33,88,55,-60.5,-11,72.5,-44,-49,-48,0,-21,-52
27,85,58,-56,-15.5,72.5,-39,-44,-44,-3,-12,-51
15,79,64,-47,-24.5,72.5,-30,-39,-40,-10,-2,-46
3,73,70,-38,-33.5,72.5,-21,-33,-36,-18,2,-41
-6,68,74,-31,-40,71,-16,-30,-34,-23,2,-38
-10,65,75,-27.5,-42.5,70,-16,-32,-36,-24,-3,-37
-5,69,74,-32,-39.5,71.5,-22,-36,-38,-20,-12,-38
8,78,70,-43,-31,74,-31,-41,-42,-11,-21,-42
23,87,64,-55,-20.5,76.5,-39,-47,-46,-4,-28,-47
33,91,58,-62,-12.5,75.5,-44,-50,-47,0,-28,-52
33,88,55,-60.5,-11,72.5,-44,-48,-46,1,-22,-54
26,84,58,-55,-16,71,-38,-43,-42,-1,-14,-52
15,78,63,-46.5,-24,71.5,-29,-37,-37,-9,-6,-47
1,71,70,-36,-34.5,71.5,-20,-32,-33,-16,-1,-42
-8,65,73,-28.5,-40.5,69,-14,-29,-32,-21,-1,-38
-10,65,75,-27.5,-42.5,70,-15,-29,-32,-21,-7,-36
-3,70,73,-33.5,-38,71.5,-20,-34,-36,-18,-17,-38
8,77,69,-42.5,-30.5,73,-29,-40,-40,-11,-27,-43
22,85,63,-53.5,-20.5,74,-37,-44,-43,-2,-32,-48
33,90,57,-61.5,-12,74.5,-41,-47,-43,3,-32,-52
34,90,56,-62,-11,73,-41,-46,-42,3,-26,-54
26,85,59,-55.5,-16.5,72,-36,-41,-39,0,-17,-53
13,78,65,-45.5,-26,72.5,-27,-35,-35,-8,-6,-48
0,72,72,-36,-36,72,-18,-30,-31,-15,-1,-43
-9,67,76,-29,-42.5,71.5,-13,-27,-30,-21,-1,-39
-11,67,78,-28,-44.5,72.5,-13,-28,-31,-21,-6,-38
-5,71,76,-33,-40.5,73.5,-19,-33,-34,-16,-15,-40
7,78,71,-42.5,-32,75.5,-28,-39,-38,-9,-25,-44
21,85,64,-53,-21.5,75.5,-36,-43,-41,-1,-31,-50
30,88,58,-59,-14,73,-41,-45,-43,3,-31,-54
32,88,56,-60,-12,72,-40,-44,-41,4,-25,-56
26,85,59,-55.5,-16.5,72,-34,-40,-37,0,-15,-54
16,79,63,-47.5,-23.5,71,-25,-33,-33,-6,-5,-50
2,72,70,-37,-34,71,-16,-28,-29,-14,0,-45
-9,67,76,-29,-42.5,71.5,-10,-26,-28,-19,0,-41
-11,67,78,-28,-44.5,72.5,-10,-27,-28,-20,-6,-39
-5,70,75,-32.5,-40,72.5,-16,-32,-31,-16,-16,-41
5,75,70,-40,-32.5,73.5,-25,-38,-36,-9,-26,-45
19,82,63,-50.5,-22,73.5,-34,-43,-39,-1,-31,-51
27,85,58,-56,-15.5,72.5,-39,-45,-40,3,-30,-55
28,85,57,-56.5,-14.5,71,-38,-43,-39,4,-24,-57
24,83,59,-53.5,-17.5,71,-33,-38,-35,1,-15,-55
13,79,66,-46,-26.5,73.5,-23,-32,-29,-5,-4,-51
0,72,72,-36,-36,72,-15,-26,-26,-12,1,-45
-9,68,77,-29.5,-43,72.5,-10,-24,-24,-18,1,-40
-11,68,79,-28.5,-45,73.5,-11,-25,-25,-19,-4,-39
-3,72,75,-34.5,-39,73.5,-16,-29,-28,-16,-13,-40
8,79,71,-43.5,-31.5,75,-25,-35,-33,-8,-23,-45
21,85,64,-53,-21.5,75.5,-34,-41,-36,0,-30,-51
30,88,58,-59,-14,73,-39,-43,-37,4,-30,-56
32,88,56,-60,-12,72,-38,-42,-36,4,-26,-58
26,84,58,-55,-16,71,-33,-38,-33,0,-17,-57
13,77,64,-45,-25.5,71.5,-24,-32,-29,-7,-6,-53
0,70,70,-35,-35,70,-14,-27,-25,-15,-1,-47
-10,65,75,-27.5,-42.5,70,-10,-25,-24,-21,-2,-44
-12,64,76,-26,-44,70,-10,-26,-25,-22,-7,-42
-7,68,75,-30.5,-41,71.5,-16,-30,-28,-17,-16,-44
5,76,71,-40.5,-33,74.5,-25,-35,-32,-9,-27,-48
19,83,64,-51,-22.5,74.5,-34,-41,-36,-2,-33,-54
28,86,58,-57,-15,72,-38,-43,-37,2,-33,-58
28,85,57,-56.5,-14.5,71,-37,-41,-35,3,-26,-59
22,81,59,-51.5,-18.5,70,-32,-37,-32,0,-17,-58
8,73,65,-40.5,-28.5,69,-24,-31,-28,-9,-7,-54
-4,67,71,-31.5,-37.5,69,-15,-25,-24,-16,-1,-48
-11,65,76,-27,-43.5,70.5,-8,-22,-22,-21,0,-43
-13,65,78,-26,-45.5,71.5,-9,-24,-24,-22,-6,-42
-7,68,75,-30.5,-41,71.5,-16,-28,-28,-18,-16,-44
5,75,70,-40,-32.5,73.5,-25,-35,-32,-11,-27,-48
18,81,63,-49.5,-22.5,72,-34,-41,-37,-4,-34,-54
25,83,58,-54,-16.5,71.5,-39,-44,-39,0,-35,-59
28,85,57,-56.5,-14.5,71,-38,-43,-38,0,-29,-61
24,83,59,-53.5,-17.5,71,-32,-37,-33,-2,-19,-58
13,77,64,-45,-25.5,71.5,-23,-31,-28,-10,-10,-53
-1,69,70,-34,-35.5,69.5,-14,-26,-25,-18,-5,-48
-12,64,76,-26,-44,70,-9,-24,-24,-24,-5,-44
-13,64,77,-25.5,-45,70.5,-9,-24,-25,-24,-11,-42
-6,68,74,-31,-40,71,-15,-29,-29,-21,-20,-44
4,74,70,-39,-33,72,-24,-35,-34,-13,-29,-48
18,80,62,-49,-22,71,-33,-40,-38,-5,-35,-54
27,82,55,-54.5,-14,69.5,-39,-44,-40,-1,-37,-59
29,83,54,-56,-12.5,69.5,-39,-43,-40,-1,-31,-61
24,81,57,-52.5,-16.5,69,-33,-38,-36,-4,-20,-59
12,76,64,-44,-26,70,-24,-32,-32,-11,-10,-54
-1,70,71,-34.5,-36,70.5,-16,-27,-28,-19,-4,-48
-10,65,75,-27.5,-42.5,70,-11,-25,-27,-25,-4,-44
-13,64,77,-25.5,-45,70.5,-11,-27,-29,-26,-11,-43
-6,68,74,-31,-40,71,-18,-31,-33,-22,-20,-45
6,74,68,-40,-31,71,-26,-38,-37,-15,-30,-50
20,81,61,-50.5,-20.5,71,-35,-44,-41,-8,-36,-56
29,85,56,-57,-13.5,71.5,-41,-47,-43,-3,-36,-61
30,83,53,-56.5,-11.5,68,-41,-45,-42,-3,-29,-62
23,79,56,-51,-16.5,68.5,-35,-41,-39,-7,-20,-60
11,74,63,-42.5,-26,69.5,-25,-34,-34,-14,-9,-54
-2,68,70,-33,-36,69,-16,-28,-31,-22,-3,-48
-12,64,76,-26,-44,70,-11,-26,-30,-28,-2,-44
-14,64,78,-25,-46,71,-12,-28,-31,-29,-9,-42
-7,68,75,-30.5,-41,71.5,-18,-32,-34,-25,-18,-44
4,73,69,-38.5,-32.5,71,-28,-38,-39,-17,-28,-48
17,78,61,-47.5,-22,70.5,-38,-45,-43,-10,-35,-55
25,81,56,-53,-15.5,69.5,-43,-48,-46,-6,-36,-60
27,82,55,-54.5,-14,69.5,-43,-48,-45,-5,-30,-61
25,83,58,-54,-16.5,71.5,-37,-42,-41,-8,-19,-59
15,79,64,-47,-24.5,72.5,-27,-36,-36,-15,-8,-54
0,70,70,-35,-35,70,-18,-30,-33,-23,-3,-49
-11,65,76,-27,-43.5,70.5,-13,-28,-32,-28,-3,-45
-12,66,78,-27,-45,72,-13,-29,-33,-28,-8,-42
-5,71,76,-33,-40.5,73.5,-19,-33,-36,-23,-17,-44
5,76,71,-40.5,-33,74.5,-29,-40,-41,-15,-27,-49
19,82,63,-50.5,-22,73.5,-38,-46,-45,-8,-33,-55
29,86,57,-57.5,-14,72.5,-43,-49,-48,-3,-34,-59
32,86,54,-59,-11,70,-43,-48,-47,-3,-28,-61
24,82,58,-53,-17,70,-36,-43,-43,-7,-19,-59
12,76,64,-44,-26,70,-27,-37,-39,-14,-8,-54
0,70,70,-35,-35,70,-19,-32,-36,-22,-2,-49
-10,65,75,-27.5,-42.5,70,-14,-30,-34,-28,-2,-45
-12,66,78,-27,-45,72,-14,-31,-35,-27,-9,-43
-5,71,76,-33,-40.5,73.5,-20,-34,-38,-23,-18,-43
5,76,71,-40.5,-33,74.5,-29,-41,-43,-15,-28,-48
19,83,64,-51,-22.5,74.5,-39,-47,-47,-7,-34,-53
29,87,58,-58,-14.5,73.5,-44,-50,-49,-2,-34,-58
31,87,56,-59,-12.5,72.5,-44,-49,-49,-3,-28,-61
24,83,59,-53.5,-17.5,71,-39,-45,-46,-7,-19,-59
11,77,66,-44,-27.5,72.5,-30,-39,-41,-14,-9,-54
0,71,71,-35.5,-35.5,71,-21,-34,-37,-22,-3,-48
-10,68,78,-29,-44,73,-16,-31,-35,-26,-2,-43
-14,67,81,-26.5,-47.5,74,-16,-32,-35,-26,-8,-41
-8,71,79,-31.5,-43.5,75,-22,-37,-39,-22,-17,-43
5,77,72,-41,-33.5,75.5,-32,-43,-44,-15,-28,-48
19,85,66,-52,-23.5,76.5,-40,-48,-47,-7,-33,-53
28,89,61,-58.5,-16.5,75,-45,-51,-49,-2,-33,-57
30,89,59,-59.5,-14.5,74,-45,-49,-47,-2,-25,-58
24,83,59,-53.5,-17.5,71,-39,-44,-44,-6,-15,-56
12,77,65,-44.5,-26.5,71,-30,-38,-40,-14,-5,-52
-1,70,71,-34.5,-36,70.5,-21,-33,-37,-22,0,-47
-11,66,77,-27.5,-44,71.5,-17,-31,-36,-27,0,-42
-13,66,79,-26.5,-46,72.5,-17,-32,-37,-28,-6,-41
-7,70,77,-31.5,-42,73.5,-23,-37,-40,-24,-16,-43
5,77,72,-41,-33.5,75.5,-33,-44,-46,-17,-26,-48
19,85,66,-52,-23.5,76.5,-41,-49,-49,-8,-31,-53
30,91,61,-60.5,-15.5,76,-47,-51,-50,-3,-31,-57
32,91,59,-61.5,-13.5,75,-46,-50,-49,-2,-26,-58
26,86,60,-56,-17,73,-40,-46,-46,-7,-16,-57
13,78,65,-45.5,-26,72.5,-31,-40,-42,-14,-6,-52
-1,69,70,-34,-35.5,69.5,-22,-35,-38,-23,-1,-48
-11,65,76,-27,-43.5,70.5,-18,-33,-37,-27,-2,-43
-13,66,79,-26.5,-46,72.5,-17,-34,-38,-28,-8,-41
-6,71,77,-32.5,-41.5,74,-23,-38,-42,-23,-18,-42
7,78,71,-42.5,-32,75.5,-33,-44,-46,-15,-27,-46
20,85,65,-52.5,-22.5,75,-41,-49,-49,-8,-33,-52
30,88,58,-59,-14,73,-47,-52,-51,-3,-33,-56
31,88,57,-59.5,-13,73.5,-46,-51,-50,-2,-27,-58
24,84,60,-54,-18,72,-40,-46,-47,-7,-17,-57
10,76,66,-43,-28,71,-32,-41,-43,-15,-8,-53
-1,71,72,-35,-36.5,71.5,-23,-35,-39,-22,-1,-47
-9,68,77,-29.5,-43,72.5,-17,-32,-37,-27,0,-42
-13,67,80,-27,-46.5,73.5,-18,-33,-39,-28,-7,-40
-6,72,78,-33,-42,75,-24,-38,-42,-24,-16,-41
7,80,73,-43.5,-33,77.5,-34,-44,-46,-16,-26,-46
20,86,66,-53,-23,76,-43,-50,-50,-8,-32,-52
28,89,61,-58.5,-16.5,75,-48,-53,-52,-3,-33,-57
30,90,60,-60,-15,75,-47,-51,-50,-3,-27,-58
26,87,61,-56.5,-17.5,74,-41,-46,-47,-7,-17,-56
13,80,67,-46.5,-27,74.5,-32,-40,-43,-15,-7,-52
-2,71,73,-34.5,-37.5,72,-24,-35,-39,-23,-2,-47
-11,66,77,-27.5,-44,71.5,-19,-33,-38,-28,-2,-42
-12,67,79,-27.5,-45.5,73,-19,-34,-39,-28,-7,-41
-5,73,78,-34,-41.5,75.5,-24,-39,-42,-24,-17,-42
8,82,74,-45,-33,78,-32,-44,-46,-16,-27,-46
21,88,67,-54.5,-23,78.5,-41,-50,-49,-7,-32,-52
29,90,61,-59.5,-16,76.5,-47,-53,-51,-3,-32,-57
32,90,58,-61,-13,74,-47,-52,-51,-2,-26,-58
24,85,61,-54.5,-18.5,73,-40,-47,-47,-6,-16,-56
11,78,67,-44.5,-28,73.5,-30,-41,-42,-14,-6,-51
-1,72,73,-35.5,-37,72.5,-22,-35,-39,-22,0,-46
-10,68,78,-29,-44,73,-18,-33,-38,-28,0,-43
-11,69,80,-29,-45.5,74.5,-18,-35,-39,-28,-7,-41
-5,73,78,-34,-41.5,75.5,-24,-39,-42,-24,-17,-42
6,80,74,-43,-34,77,-33,-45,-47,-16,-27,-47
20,86,66,-53,-23,76,-41,-51,-50,-8,-33,-52
29,89,60,-59,-15.5,75.5,-47,-53,-52,-3,-33,-57
30,88,58,-59,-14,73,-47,-53,-51,-3,-27,-59
24,85,61,-54.5,-18.5,73,-41,-49,-48,-7,-17,-57
13,80,67,-46.5,-27,74.5,-32,-42,-43,-15,-7,-53
0,73,73,-36.5,-36.5,73,-23,-37,-39,-23,-1,-47
-10,68,78,-29,-44,73,-18,-34,-38,-28,-2,-43
-12,68,80,-28,-46,74,-18,-36,-39,-29,-8,-41
-6,72,78,-33,-42,75,-24,-41,-43,-25,-19,-43
6,78,72,-42,-33,75,-33,-47,-47,-17,-29,-47
20,86,66,-53,-23,76,-42,-53,-51,-9,-35,-53
30,91,61,-60.5,-15.5,76,-47,-55,-53,-4,-35,-58
31,91,60,-61,-14.5,76.5,-46,-52,-51,-3,-27,-59
25,87,62,-56,-18.5,75.5,-39,-47,-46,-6,-16,-56
12,80,68,-46,-28,74,-30,-42,-42,-14,-7,-51
-1,73,74,-36,-37.5,73.5,-22,-37,-39,-21,-1,-46
-10,69,79,-29.5,-44.5,74,-17,-35,-37,-26,-2,-42
-13,69,82,-28,-47.5,75.5,-17,-36,-38,-28,-8,-40
-7,72,79,-32.5,-43,75.5,-24,-41,-42,-24,-18,-42
3,78,75,-40.5,-36,77.5,-33,-47,-47,-16,-29,-47
17,84,67,-50.5,-25,76.5,-42,-53,-51,-8,-36,-53
26,87,61,-56.5,-17.5,74,-47,-55,-52,-3,-36,-57
26,85,59,-55.5,-16.5,72,-47,-54,-52,-4,-30,-59
22,84,62,-53,-20,73,-41,-49,-48,-7,-20,-57
13,80,67,-46.5,-27,74.5,-31,-42,-43,-14,-9,-52
0,73,73,-36.5,-36.5,73,-22,-37,-39,-22,-3,-46
-10,69,79,-29.5,-44.5,74,-17,-34,-38,-27,-4,-42
-11,69,80,-29,-45.5,74.5,-17,-35,-39,-27,-10,-40
-4,74,78,-35,-41,76,-23,-40,-42,-22,-19,-41
7,80,73,-43.5,-33,77.5,-32,-46,-47,-14,-29,-46
21,86,65,-53.5,-22,76.5,-41,-51,-50,-6,-35,-51
31,90,59,-60.5,-14,75.5,-46,-53,-51,-1,-34,-55
31,89,58,-60,-13.5,74.5,-45,-52,-50,0,-28,-57
25,85,60,-55,-17.5,73.5,-39,-47,-46,-5,-18,-55
14,79,65,-46.5,-25.5,72,-30,-41,-42,-12,-7,-51
0,72,72,-36,-36,72,-22,-36,-39,-21,-2,-46
-10,68,78,-29,-44,73,-17,-35,-38,-26,-2,-41
-11,69,80,-29,-45.5,74.5,-17,-36,-38,-27,-9,-40
-5,72,77,-33.5,-41,74.5,-23,-41,-42,-23,-19,-41
7,78,71,-42.5,-32,75.5,-32,-47,-46,-15,-29,-46
22,86,64,-54,-21,75,-41,-52,-50,-7,-35,-51
30,90,60,-60,-15,75,-46,-54,-51,-2,-35,-56
31,89,58,-60,-13.5,74.5,-46,-53,-51,-2,-29,-58
25,85,60,-55,-17.5,73.5,-39,-49,-47,-6,-19,-56
12,78,66,-45,-27,72,-31,-43,-43,-14,-9,-52
-1,71,72,-35,-36.5,71.5,-22,-37,-39,-22,-4,-47
-12,66,78,-27,-45,72,-16,-35,-37,-27,-3,-42
-14,66,80,-26,-47,73,-17,-37,-39,-28,-8,-40
-4,72,76,-34,-40,74,-23,-42,-43,-24,-18,-42
8,79,71,-43.5,-31.5,75,-33,-49,-48,-17,-29,-46
22,87,65,-54.5,-21.5,76,-42,-54,-51,-9,-34,-51
30,90,60,-60,-15,75,-47,-56,-53,-4,-34,-57
31,88,57,-59.5,-13,73.5,-47,-55,-51,-3,-28,-58
23,83,60,-53,-18.5,72.5,-41,-50,-48,-7,-18,-56
9,76,67,-42.5,-29,72.5,-32,-45,-43,-15,-8,-52
-2,70,72,-34,-37,71,-22,-40,-39,-24,-2,-46
-9,68,77,-29.5,-43,72.5,-16,-37,-37,-29,-1,-41
-12,68,80,-28,-46,74,-15,-36,-38,-30,-8,-39
-7,72,79,-32.5,-43,75.5,-22,-40,-42,-27,-18,-42
4,77,73,-40.5,-34.5,75,-32,-46,-47,-19,-30,-46
19,84,65,-51.5,-23,75.5,-40,-52,-51,-11,-38,-52
29,89,60,-59,-15.5,75.5,-45,-54,-52,-6,-39,-56
30,89,59,-59.5,-14.5,74,-45,-53,-51,-6,-32,-58
24,86,62,-55,-19,74,-39,-49,-47,-9,-22,-55
12,79,67,-45.5,-27.5,73,-29,-43,-43,-17,-11,-51
-2,71,73,-34.5,-37.5,72,-21,-38,-40,-26,-5,-46
-11,68,79,-28.5,-45,73.5,-16,-35,-38,-31,-4,-42
-12,70,82,-29,-47,76,-17,-36,-39,-30,-9,-40
-5,73,78,-34,-41.5,75.5,-23,-41,-43,-27,-19,-42
6,79,73,-42.5,-33.5,76,-32,-47,-47,-19,-29,-47
19,86,67,-52.5,-24,77.5,-41,-53,-51,-12,-36,-54
29,89,60,-59,-15.5,75.5,-46,-55,-53,-7,-35,-58
30,88,58,-59,-14,73,-44,-53,-51,-5,-28,-59
23,83,60,-53,-18.5,72.5,-39,-48,-47,-9,-18,-57
11,77,66,-44,-27.5,72.5,-29,-42,-42,-16,-7,-53
-1,71,72,-35,-36.5,71.5,-21,-37,-39,-25,-1,-47
-10,67,77,-28.5,-43.5,72,-17,-35,-38,-31,-2,-43
-12,68,80,-28,-46,74,-17,-37,-39,-31,-9,-41
-6,72,78,-33,-42,75,-22,-41,-42,-26,-19,-42
7,78,71,-42.5,-32,75.5,-31,-46,-46,-19,-29,-47
21,85,64,-53,-21.5,75.5,-40,-52,-50,-11,-34,-53
30,89,59,-59.5,-14.5,74,-45,-55,-51,-6,-33,-58
30,89,59,-59.5,-14.5,74,-45,-53,-50,-5,-27,-59
23,84,61,-53.5,-19,73.5,-39,-49,-47,-9,-17,-58
11,78,67,-44.5,-28,73.5,-30,-43,-43,-16,-7,-53
-1,73,74,-36,-37.5,73.5,-21,-37,-39,-24,0,-47
-9,69,78,-30,-43.5,73.5,-16,-34,-38,-29,0,-43
-12,69,81,-28.5,-46.5,75,-16,-36,-38,-30,-7,-41
-6,72,78,-33,-42,75,-23,-41,-42,-26,-17,-43
6,78,72,-42,-33,75,-32,-47,-47,-18,-28,-48
19,85,66,-52,-23.5,76.5,-41,-53,-51,-11,-34,-54
29,89,60,-59,-15.5,75.5,-46,-55,-52,-6,-35,-58
31,89,58,-60,-13.5,74.5,-45,-53,-51,-5,-28,-60
24,84,60,-54,-18,72,-39,-49,-47,-9,-18,-59
12,78,66,-45,-27,72,-30,-43,-43,-16,-7,-54
-1,71,72,-35,-36.5,71.5,-21,-38,-39,-24,-1,-48
-10,67,77,-28.5,-43.5,72,-16,-36,-38,-30,-1,-43
-12,67,79,-27.5,-45.5,73,-17,-37,-39,-31,-8,-42
-5,72,77,-33.5,-41,74.5,-23,-42,-42,-27,-18,-44
7,79,72,-43,-32.5,76.5,-31,-47,-46,-19,-28,-48
20,85,65,-52.5,-22.5,75,-40,-52,-50,-11,-34,-54
29,89,60,-59,-15.5,75.5,-45,-54,-52,-5,-33,-59
31,88,57,-59.5,-13,73.5,-45,-53,-51,-5,-26,-61
23,84,61,-53.5,-19,73.5,-39,-49,-47,-9,-16,-59
10,78,68,-44,-29,73,-30,-43,-43,-17,-5,-54
-2,72,74,-35,-38,73,-21,-38,-39,-25,0,-48
-11,69,80,-29,-45.5,74.5,-16,-35,-37,-29,1,-43
-13,67,80,-27,-46.5,73.5,-17,-37,-39,-30,-5,-42
-8,70,78,-31,-43,74,-23,-42,-42,-27,-16,-44
5,78,73,-41.5,-34,76.5,-32,-48,-47,-18,-26,-49
22,87,65,-54.5,-21.5,76,-40,-53,-50,-10,-31,-54
31,90,59,-60.5,-14,75.5,-45,-55,-51,-5,-31,-58
30,88,58,-59,-14,73,-45,-54,-50,-5,-26,-61
23,84,61,-53.5,-19,73.5,-39,-50,-47,-10,-16,-59
11,78,67,-44.5,-28,73.5,-29,-43,-42,-17,-5,-54
-1,72,73,-35.5,-37,72.5,-21,-38,-38,-25,0,-48
-12,67,79,-27.5,-45.5,73,-17,-36,-37,-30,0,-44
-15,66,81,-25.5,-48,73.5,-17,-37,-39,-31,-7,-43
-8,70,78,-31,-43,74,-24,-42,-43,-27,-17,-45
7,79,72,-43,-32.5,76.5,-32,-47,-46,-18,-26,-48
21,86,65,-53.5,-22,76.5,-40,-52,-49,-10,-31,-54
30,88,58,-59,-14,73,-46,-55,-52,-5,-32,-59
30,87,57,-58.5,-13.5,72,-46,-54,-51,-5,-27,-62
25,84,59,-54.5,-17,72.5,-40,-49,-47,-9,-17,-60
14,80,66,-47,-26,73,-30,-42,-42,-16,-6,-54
0,73,73,-36.5,-36.5,73,-21,-38,-38,-24,0,-49
-9,68,77,-29.5,-43,72.5,-17,-36,-38,-30,0,-44
-12,68,80,-28,-46,74,-16,-36,-38,-29,-6,-42
-8,72,80,-32,-44,76,-22,-40,-40,-25,-15,-43
4,78,74,-41,-35,76,-33,-47,-46,-19,-27,-48
18,86,68,-52,-25,77,-42,-52,-50,-11,-33,-54
29,91,62,-60,-16.5,77.5,-47,-54,-51,-6,-33,-58
32,91,59,-61.5,-13.5,75,-46,-52,-50,-5,-26,-60
24,85,61,-54.5,-18.5,73,-40,-48,-46,-10,-16,-58
10,78,68,-44,-29,73,-30,-41,-42,-17,-6,-54
-2,72,74,-35,-38,73,-22,-37,-38,-26,-1,-48
-11,69,80,-29,-45.5,74.5,-17,-35,-37,-30,0,-44
-13,69,82,-28,-47.5,75.5,-17,-35,-38,-31,-6,-41
-7,73,80,-33,-43.5,76.5,-23,-40,-41,-27,-16,-43
5,80,75,-42.5,-35,78.5,-32,-46,-45,-19,-27,-48
18,86,68,-52,-25,77,-42,-51,-49,-11,-32,-54
27,90,63,-58.5,-18,77.5,-48,-54,-51,-5,-33,-59
29,89,60,-59,-15.5,75.5,-46,-53,-50,-5,-28,-61
22,84,62,-53,-20,73,-40,-48,-46,-8,-17,-58
10,78,68,-44,-29,73,-31,-42,-42,-16,-7,-54
-1,71,72,-35,-36.5,71.5,-22,-37,-38,-24,-2,-48
-11,68,79,-28.5,-45,73.5,-17,-34,-36,-28,-1,-43
-13,69,82,-28,-47.5,75.5,-18,-35,-37,-28,-8,-41
-6,74,80,-34,-43,77,-23,-40,-40,-24,-17,-43
7,81,74,-44,-33.5,78.5,-33,-46,-44,-16,-28,-47
21,88,67,-54.5,-23,78.5,-42,-51,-48,-8,-33,-53
29,91,62,-60,-16.5,77.5,-48,-53,-49,-3,-33,-58
30,92,62,-61,-16,77,-47,-52,-48,-2,-26,-60
24,88,64,-56,-20,76,-41,-47,-44,-6,-17,-58
10,82,72,-46,-31,77,-33,-42,-39,-13,-6,-53
-2,75,77,-36.5,-39.5,76,-24,-36,-36,-21,0,-47
-12,73,85,-30.5,-48.5,79,-18,-33,-33,-25,0,-42
-14,74,88,-30,-51,81,-18,-35,-35,-25,-6,-41
-7,79,86,-36,-46.5,82.5,-25,-40,-38,-21,-16,-43
5,87,82,-46,-38.5,85.5,-34,-47,-42,-13,-26,-47
18,93,75,-55.5,-28.5,84,-43,-52,-45,-5,-32,-53
27,97,70,-62,-21.5,84.5,-48,-55,-47,0,-32,-58
29,97,68,-63,-19.5,83.5,-47,-54,-45,0,-26,-59
22,94,72,-58,-25,83,-41,-50,-42,-4,-16,-58
10,88,78,-49,-34,83,-31,-43,-36,-11,-6,-53
-2,83,85,-40.5,-43.5,84,-24,-38,-32,-19,0,-46
-13,80,93,-33.5,-53,86.5,-20,-37,-31,-24,0,-42
-15,82,97,-33.5,-56,89.5,-21,-39,-32,-24,-6,-39
-8,88,96,-40,-52,92,-28,-44,-35,-19,-15,-40
6,96,90,-51,-42,93,-38,-49,-39,-10,-25,-44
21,103,82,-62,-30.5,93.5,-47,-55,-43,-2,-31,-50
29,105,76,-67,-23.5,91.5,-53,-58,-46,1,-31,-55
30,103,73,-66.5,-21.5,88,-53,-57,-46,1,-25,-57
23,98,75,-60.5,-26,87.5,-47,-53,-43,-3,-15,-56
11,91,80,-51,-34.5,86.5,-37,-47,-39,-10,-4,-51
-1,85,86,-42,-43.5,85.5,-29,-41,-35,-18,1,-45
-11,80,91,-34.5,-51,85.5,-24,-39,-34,-23,1,-41
-12,79,91,-33.5,-51.5,85,-24,-40,-36,-23,-6,-39
-4,83,87,-39.5,-45.5,85,-28,-44,-39,-19,-16,-41
7,88,81,-47.5,-37,85.5,-37,-50,-44,-12,-26,-46
22,93,71,-57.5,-24.5,82,-46,-55,-48,-4,-33,-52
31,96,65,-63.5,-17,81.5,-51,-57,-50,0,-33,-56
32,95,63,-63.5,-15.5,79,-50,-55,-48,0,-27,-58
25,91,66,-58,-20.5,79.5,-45,-51,-45,-3,-17,-56
14,86,72,-50,-29,79,-36,-45,-41,-11,-6,-51
0,79,79,-39.5,-39.5,79,-27,-40,-38,-20,0,-46
-11,74,85,-31.5,-48,79.5,-22,-39,-37,-26,-1,-41
-14,71,85,-28.5,-49.5,78,-23,-40,-39,-26,-8,-39
-6,74,80,-34,-43,77,-29,-45,-43,-23,-18,-41
7,80,73,-43.5,-33,77.5,-38,-51,-48,-16,-29,-46
21,87,66,-54,-22.5,77.5,-46,-56,-52,-7,-35,-51
32,92,60,-62,-14,76,-51,-57,-52,-1,-34,-55
35,93,58,-64,-11.5,76.5,-52,-56,-51,0,-27,-56
28,88,60,-58,-16,74,-47,-52,-48,-4,-17,-54
15,81,66,-48,-25.5,74.5,-39,-46,-43,-12,-7,-50
2,74,72,-38,-35,73,-31,-41,-41,-20,-2,-44
-5,72,77,-33.5,-41,74.5,-26,-39,-39,-25,0,-38
-6,74,80,-34,-43,77,-26,-40,-40,-25,-5,-36
0,77,77,-38.5,-38.5,77,-32,-44,-44,-22,-16,-39
12,83,71,-47.5,-29.5,77,-41,-50,-50,-14,-26,-44
25,87,62,-56,-18.5,75.5,-49,-55,-53,-6,-32,-50
33,89,56,-61,-11.5,73.5,-53,-57,-55,-2,-33,-55
35,86,51,-60.5,-8,69.5,-53,-57,-55,-4,-29,-58
28,82,54,-55,-13,68,-46,-52,-51,-8,-19,-56
13,75,62,-44,-24.5,69.5,-35,-45,-45,-15,-8,-52
-1,67,68,-33,-34.5,67.5,-24,-39,-42,-23,-3,-48
-12,62,74,-25,-43,68,-18,-37,-40,-29,-4,-45
-14,63,77,-24.5,-45.5,70,-17,-37,-40,-29,-11,-43
-8,67,75,-29.5,-41.5,71,-23,-41,-44,-25,-21,-45
4,73,69,-38.5,-32.5,71,-32,-47,-48,-17,-31,-51
18,80,62,-49,-22,71,-40,-52,-51,-9,-38,-57
25,83,58,-54,-16.5,71.5,-45,-54,-52,-3,-37,-61
27,83,56,-55,-14.5,70.5,-44,-52,-51,-3,-28,-62
21,78,57,-49.5,-18,68.5,-37,-47,-47,-7,-19,-60
8,70,62,-39,-27,66,-28,-42,-43,-15,-9,-56
-4,63,67,-29.5,-35.5,65,-21,-37,-41,-23,-3,-51
-13,59,72,-23,-42.5,65.5,-16,-34,-40,-29,-4,-46
-17,59,76,-21,-46.5,67.5,-16,-36,-41,-29,-11,-44
-11,60,71,-24.5,-41,65.5,-22,-41,-45,-25,-21,-47
3,68,65,-35.5,-31,67.5,-31,-47,-50,-18,-32,-51
18,76,58,-47,-20,67,-40,-52,-53,-10,-38,-57
27,79,52,-53,-12.5,66.5,-44,-55,-55,-5,-39,-62
30,79,49,-54.5,-9.5,64,-44,-53,-54,-5,-32,-64
21,75,54,-48,-16.5,65.5,-38,-49,-50,-10,-22,-62
6,67,61,-36.5,-27.5,64,-29,-43,-46,-18,-12,-58
-6,61,67,-27.5,-36.5,64,-20,-38,-42,-26,-6,-52
-13,59,72,-23,-42.5,65.5,-14,-35,-41,-31,-6,-47
-14,61,75,-23.5,-44.5,68,-14,-36,-41,-31,-12,-45
-9,65,74,-28,-41.5,69.5,-20,-41,-44,-26,-23,-47
2,70,68,-36,-33,69,-30,-48,-50,-18,-35,-52
17,76,59,-46.5,-21,68.5,-39,-53,-53,-11,-41,-58
27,80,53,-53.5,-13,67.5,-43,-54,-54,-5,-40,-62
27,78,51,-52.5,-12,65.5,-43,-53,-53,-5,-34,-65
19,72,53,-45.5,-17,63.5,-37,-48,-50,-9,-25,-64
6,66,60,-36,-27,63,-28,-42,-45,-18,-14,-59
-7,60,67,-26.5,-37,63.5,-18,-36,-41,-25,-7,-53
-15,59,74,-22,-44.5,66.5,-12,-33,-38,-30,-6,-47
-15,60,75,-22.5,-45,67.5,-12,-34,-39,-30,-12,-45
-8,65,73,-28.5,-40.5,69,-19,-39,-43,-26,-21,-47
3,70,67,-36.5,-32,69.5,-29,-46,-48,-19,-33,-53
16,76,60,-46,-22,68,-38,-51,-52,-11,-39,-58
25,80,55,-52.5,-15,68.5,-43,-53,-53,-5,-40,-63
26,79,53,-52.5,-13.5,66,-43,-52,-52,-4,-35,-66
17,73,56,-45,-19.5,65.5,-38,-49,-49,-10,-25,-65
5,67,62,-36,-28.5,65.5,-29,-43,-45,-17,-14,-60
-4,62,66,-29,-35,64,-19,-37,-41,-25,-7,-54
-12,61,73,-24.5,-42.5,67,-13,-33,-38,-30,-6,-48
-15,61,76,-23,-45.5,68.5,-13,-34,-39,-30,-12,-45
-8,65,73,-28.5,-40.5,69,-18,-39,-42,-25,-22,-47
5,74,69,-39.5,-32,72.5,-28,-45,-47,-17,-32,-51
18,80,62,-49,-22,71,-37,-50,-51,-9,-39,-58
27,82,55,-54.5,-14,69.5,-43,-53,-53,-4,-41,-64
29,81,52,-55,-11.5,67.5,-44,-53,-52,-4,-35,-66
22,77,55,-49.5,-16.5,66,-39,-48,-49,-8,-25,-65
9,70,61,-39.5,-26,66.5,-30,-42,-44,-16,-14,-60
-5,64,69,-29.5,-37,66.5,-20,-37,-40,-24,-8,-54
-14,61,75,-23.5,-44.5,68,-14,-34,-38,-31,-7,-49
-16,62,78,-23,-47,70,-14,-35,-38,-31,-12,-46
-11,65,76,-27,-43.5,70.5,-19,-39,-41,-26,-22,-47
2,72,70,-37,-34,71,-29,-45,-45,-18,-32,-51
17,78,61,-47.5,-22,70.5,-38,-51,-50,-9,-39,-57
27,82,55,-54.5,-14,69.5,-44,-54,-51,-3,-40,-62
29,82,53,-55.5,-12,68.5,-43,-51,-50,-1,-34,-64
21,78,57,-49.5,-18,68.5,-38,-47,-46,-6,-24,-63
8,71,63,-39.5,-27.5,67,-29,-41,-42,-14,-13,-59
-4,64,68,-30,-36,66,-20,-36,-39,-23,-8,-54
-14,62,76,-24,-45,69,-13,-33,-36,-29,-6,-48
-15,63,78,-24,-46.5,70.5,-13,-33,-36,-29,-11,-45
-9,68,77,-29.5,-43,72.5,-19,-38,-39,-25,-21,-46
3,74,71,-38.5,-34,73.5,-29,-45,-44,-17,-33,-52
18,80,62,-49,-22,71,-38,-51,-48,-9,-40,-58
27,82,55,-54.5,-14,69.5,-44,-54,-50,-4,-41,-64
28,81,53,-54.5,-12.5,67,-44,-53,-50,-3,-35,-66
22,78,56,-50,-17,67,-38,-48,-46,-6,-26,-64
11,72,61,-41.5,-25,67.5,-28,-41,-41,-14,-15,-59
-2,65,67,-31.5,-34.5,66,-19,-36,-37,-23,-7,-53
-12,62,74,-25,-43,68,-12,-33,-35,-28,-6,-48
-14,63,77,-24.5,-45.5,70,-12,-34,-35,-29,-12,-46
-8,67,75,-29.5,-41.5,71,-18,-39,-39,-24,-21,-47
2,74,72,-38,-35,73,-28,-45,-43,-16,-32,-51
17,82,65,-49.5,-24,74.5,-37,-51,-46,-8,-39,-57
27,85,58,-56,-15.5,72.5,-42,-53,-48,-2,-41,-62
29,83,54,-56,-12.5,69.5,-42,-51,-48,-2,-34,-65
22,79,57,-50.5,-17.5,68,-36,-46,-44,-6,-24,-64
9,73,64,-41,-27.5,69.5,-27,-40,-39,-13,-13,-59
-4,67,71,-31.5,-37.5,69,-17,-34,-35,-22,-6,-53
-13,64,77,-25.5,-45,70.5,-11,-31,-33,-28,-5,-47
-15,64,79,-24.5,-47,71.5,-11,-33,-34,-28,-11,-44
-8,69,77,-30.5,-42.5,73,-16,-37,-37,-24,-21,-45
4,76,72,-40,-34,74,-26,-43,-42,-16,-32,-50
19,84,65,-51.5,-23,75.5,-36,-49,-46,-7,-38,-56
28,87,59,-57.5,-15.5,73,-41,-52,-48,-1,-39,-61
29,85,56,-57,-13.5,71.5,-41,-51,-48,-1,-33,-64
23,81,58,-52,-17.5,70.5,-35,-46,-44,-6,-23,-62
11,75,64,-43,-26.5,70.5,-26,-40,-39,-14,-12,-58
-2,69,71,-33.5,-36.5,70,-16,-34,-35,-22,-4,-52
-13,65,78,-26,-45.5,71.5,-10,-31,-33,-27,-3,-46
-16,65,81,-24.5,-48.5,73,-9,-33,-34,-27,-8,-44
-11,68,79,-28.5,-45,73.5,-15,-38,-37,-23,-18,-46
2,77,75,-39.5,-36.5,76,-25,-44,-42,-16,-30,-50
18,83,65,-50.5,-23.5,74,-34,-50,-46,-7,-36,-56
27,86,59,-56.5,-16,73.5,-40,-52,-47,-2,-37,-61
30,87,57,-58.5,-13.5,72,-40,-51,-46,-1,-30,-63
24,83,59,-53.5,-17.5,71,-34,-46,-42,-5,-20,-61
10,75,65,-42.5,-27.5,70,-25,-40,-38,-13,-10,-57
-3,69,72,-33,-37.5,70.5,-16,-34,-34,-22,-4,-50
-12,67,79,-27.5,-45.5,73,-10,-31,-32,-27,-2,-45
-14,68,82,-27,-48,75,-9,-32,-32,-28,-8,-43
-8,72,80,-32,-44,76,-16,-38,-36,-25,-18,-44
4,78,74,-41,-35,76,-26,-46,-42,-18,-30,-49
17,84,67,-50.5,-25,76.5,-34,-52,-45,-10,-37,-55
25,85,60,-55,-17.5,73.5,-39,-53,-47,-4,-38,-60
28,86,58,-57,-15,72,-39,-51,-46,-2,-31,-62
23,83,60,-53,-18.5,72.5,-33,-44,-42,-5,-19,-60
8,75,67,-41.5,-29.5,71,-24,-38,-37,-12,-8,-56
-7,65,72,-29,-39.5,68.5,-16,-34,-34,-21,-3,-51
-16,61,77,-22.5,-46.5,69,-9,-32,-32,-27,-2,-46
-17,63,80,-23,-48.5,71.5,-8,-32,-32,-27,-8,-43
-9,68,77,-29.5,-43,72.5,-14,-37,-36,-23,-19,-45
5,77,72,-41,-33.5,75.5,-23,-43,-41,-16,-31,-49
20,85,65,-52.5,-22.5,75,-31,-48,-45,-8,-37,-55
27,87,60,-57,-16.5,74.5,-37,-51,-49,-4,-38,-61
28,86,58,-57,-15,72,-36,-50,-48,-4,-31,-63
21,81,60,-51,-19.5,71.5,-30,-45,-44,-7,-20,-60
8,74,66,-41,-29,70,-22,-39,-39,-14,-9,-55
-4,67,71,-31.5,-37.5,69,-13,-34,-35,-20,-2,-49
-11,65,76,-27,-43.5,70.5,-8,-31,-34,-23,0,-43
-12,66,78,-27,-45,72,-10,-34,-36,-23,-5,-40
-7,69,76,-31,-41.5,72.5,-15,-39,-43,-22,-15,-42
4,73,69,-38.5,-32.5,71,-25,-46,-50,-18,-27,-48
18,79,61,-48.5,-21.5,70,-33,-52,-56,-13,-33,-53
26,81,55,-53.5,-14.5,68,-37,-53,-58,-12,-36,-59
27,78,51,-52.5,-12,65.5,-34,-49,-55,-13,-30,-60
22,73,51,-47.5,-14.5,62,-26,-44,-51,-20,-20,-58
9,66,57,-37.5,-24,62.5,-16,-38,-49,-31,-11,-53
-6,57,63,-25.5,-34.5,60,-7,-34,-49,-42,-6,-48
-16,50,66,-17,-41,58,-2,-31,-49,-50,-7,-43
-17,49,66,-16,-41.5,57.5,-3,-33,-53,-53,-14,-42
-10,53,63,-21.5,-36.5,58,-8,-37,-57,-52,-26,-44
4,58,54,-31,-25,56,-16,-40,-61,-46,-38,-48
19,63,44,-41,-12.5,54.5,-24,-45,-67,-42,-44,-53
29,68,39,-48.5,-5,54.5,-30,-49,-74,-42,-43,-56
31,71,40,-51,-4.5,56.5,-31,-50,-77,-46,-36,-55
26,67,41,-46.5,-7.5,54,-26,-47,-75,-52,-24,-52
15,59,44,-37,-14.5,52.5,-19,-42,-75,-62,-12,-46
4,53,49,-28.5,-22.5,51,-14,-40,-77,-74,-4,-37
-2,51,53,-24.5,-27.5,52,-10,-39,-80,-81,-1,-29
-3,49,52,-23,-27.5,50.5,-11,-42,-85,-88,-10,-27
3,41,38,-22,-17.5,40.5,-12,-42,-87,-90,-26,-34
16,26,10,-21,3,18,-11,-35,-79,-78,-43,-46
29,10,-19,-19.5,24,-4.5,-9,-26,-68,-68,-60,-60
37,-8,-45,-14.5,41,-26.5,-3,-15,-58,-65,-76,-75
37,-34,-71,-1.5,54,-52.5,8,0,-43,-64,-84,-89
30,-60,-90,15,60,-75,24,14,-31,-73,-88,-98
16,-78,-94,31,55,-86,37,22,-28,-88,-87,-101
3,-96,-99,46.5,51,-97.5,49,32,-21,-95,-85,-100
-4,-112,-108,58,52,-110,60,41,-12,-94,-87,-100
-4,-121,-117,62.5,56.5,-119,64,45,-6,-88,-94,-103
0,-129,-129,64.5,64.5,-129,63,45,-5,-81,-107,-110
11,-135,-146,62,78.5,-140.5,60,45,-10,-80,-127,-122
24,-135,-159,55.5,91.5,-147,57,44,-12,-81,-143,-134
33,-134,-167,50.5,100,-150.5,55,46,-9,-78,-147,-141
33,-132,-165,49.5,99,-148.5,57,47,-6,-76,-140,-144
26,-131,-157,52.5,91.5,-144,63,52,-1,-79,-130,-143
13,-133,-146,60,79.5,-139.5,73,62,8,-82,-118,-138
0,-137,-137,68.5,68.5,-137,84,73,24,-81,-109,-133
-10,-141,-131,75.5,60.5,-136,91,80,38,-78,-107,-130
-10,-139,-129,74.5,59.5,-134,92,84,48,-70,-110,-127
-1,-135,-134,68,66.5,-135.5,89,86,57,-60,-120,-131
9,-128,-137,59.5,73,-132.5,82,85,65,-48,-133,-140
23,-116,-139,46.5,81,-127.5,73,83,79,-32,-138,-145
34,-108,-142,37,88,-125,69,88,95,-20,-136,-149
36,-106,-142,35,89,-124,74,99,114,-16,-129,-152
29,-105,-134,38,81.5,-119.5,83,114,138,-13,-116,-150
16,-107,-123,45.5,69.5,-115,96,132,159,-15,-104,-145
1,-109,-110,54,55.5,-109.5,111,148,174,-19,-95,-138
-8,-104,-96,56,44,-100,117,151,177,-19,-92,-132
-11,-97,-86,54,37.5,-92.5,117,147,173,-15,-95,-128
-10,-89,-79,49.5,34.5,-84,116,140,151,-18,-105,-130
-2,-81,-79,41.5,38.5,-80,113,130,112,-27,-120,-137
9,-71,-80,31,44.5,-75.5,109,123,81,-32,-128,-143
16,-59,-75,21.5,45.5,-67,107,120,58,-34,-125,-145
13,-55,-68,21,40.5,-61.5,113,119,44,-39,-118,-145
3,-55,-58,26,30.5,-56.5,122,120,36,-49,-108,-141
-11,-54,-43,32.5,16,-49.5,130,118,30,-60,-96,-132
-26,-51,-25,38.5,-1.5,-38,132,114,24,-68,-87,-123
-36,-48,-12,42,-12,-30,129,105,13,-74,-83,-114
-35,-38,-3,36.5,-16,-21.5,120,94,2,-73,-84,-107
-24,-22,2,23,-13,-10,107,82,-5,-64,-86,-102
-9,-1,8,5,-9.5,3.5,89,70,-9,-49,-86,-99
5,18,13,-11.5,-4,16.5,71,59,-11,-31,-81,-97
15,32,17,-23.5,-1,25.5,57,49,-13,-20,-74,-95
16,40,24,-28,-4,32,48,40,-14,-15,-61,-91
12,45,33,-28.5,-10.5,39,45,35,-11,-15,-45,-84
1,45,44,-23,-21.5,45.5,45,31,-8,-19,-30,-76
-12,42,54,-15,-33,48,44,29,-5,-22,-20,-67
-20,42,62,-11,-41,52,40,24,-3,-23,-17,-60
-19,47,66,-14,-42.5,56.5,31,16,-4,-19,-20,-56
-11,57,68,-23,-39.5,62.5,18,4,-8,-11,-26,-55
1,69,68,-35,-33.5,69.5,1,-8,-12,-1,-33,-57
17,79,62,-48,-22.5,71.5,-11,-18,-17,8,-35,-61
26,83,57,-54.5,-15.5,70,-20,-25,-19,13,-34,-64
28,84,56,-56,-14,70,-22,-26,-18,14,-26,-65
22,81,59,-51.5,-18.5,70,-18,-25,-16,11,-15,-62
8,75,67,-41.5,-29.5,71,-12,-23,-13,2,-5,-57
-4,70,74,-33,-39,72,-5,-20,-10,-4,0,-50
-13,67,80,-27,-46.5,73.5,0,-19,-9,-8,0,-44
-15,67,82,-26,-48.5,74.5,-2,-22,-11,-8,-6,-42
-9,71,80,-31,-44.5,75.5,-10,-28,-16,-5,-16,-45
3,78,75,-40.5,-36,77.5,-20,-36,-22,0,-28,-50
17,86,69,-51.5,-26,78.5,-30,-43,-26,8,-33,-55
27,91,64,-59,-18.5,78.5,-36,-46,-27,14,-32,-59
28,92,64,-60,-18,78,-35,-45,-26,14,-25,-61
22,89,67,-55.5,-22.5,78,-29,-41,-23,10,-14,-58
10,85,75,-47.5,-32.5,80,-19,-35,-18,4,-3,-53
-3,77,80,-37,-41.5,78.5,-11,-30,-14,-2,1,-48
-14,72,86,-29,-50,79,-7,-28,-13,-8,0,-44
-15,72,87,-28.5,-51,79.5,-8,-30,-14,-8,-6,-43
-7,77,84,-35,-45.5,80.5,-15,-34,-17,-3,-16,-44
5,83,78,-44,-36.5,81.5,-24,-40,-21,4,-25,-49
17,89,72,-53,-27.5,81.5,-33,-46,-25,11,-32,-55
27,95,68,-61,-20.5,82.5,-37,-48,-27,16,-32,-59
28,95,67,-61.5,-19.5,81,-36,-46,-26,16,-25,-61
21,91,70,-56,-24.5,81.5,-30,-42,-23,10,-15,-60
9,86,77,-47.5,-34,82.5,-22,-36,-18,2,-5,-55
-4,79,83,-37.5,-43.5,81,-13,-31,-15,-5,0,-50
-13,74,87,-30.5,-50,80.5,-8,-29,-13,-10,0,-46
-16,73,89,-28.5,-52.5,81,-10,-31,-14,-9,-7,-45
-11,75,86,-32,-48.5,80.5,-18,-36,-18,-3,-16,-47
1,80,79,-40.5,-39,80.5,-26,-41,-21,5,-25,-52
15,88,73,-51.5,-29,81.5,-34,-46,-24,14,-30,-57
26,92,66,-59,-20,79,-39,-48,-25,19,-29,-61
29,93,64,-61,-17.5,79.5,-37,-46,-24,19,-21,-61
21,88,67,-54.5,-23,78.5,-31,-41,-20,14,-11,-59
9,82,73,-45.5,-32,78.5,-23,-36,-16,6,-1,-55
-2,77,79,-37.5,-40.5,78,-14,-31,-13,-1,2,-49
-13,72,85,-29.5,-49,78.5,-9,-29,-13,-6,1,-45
-16,72,88,-28,-52,80,-10,-31,-15,-7,-6,-45
-10,76,86,-33,-48,81,-16,-36,-18,-4,-17,-48
3,84,81,-43.5,-39,83.5,-25,-42,-22,3,-27,-53
16,90,74,-53,-29,82,-35,-47,-25,10,-32,-59
25,93,68,-59,-21.5,81.5,-40,-49,-26,15,-32,-64
29,96,67,-62.5,-19,82.5,-38,-47,-23,17,-23,-65
23,92,69,-57.5,-23,81.5,-32,-42,-19,14,-13,-63
9,84,75,-46.5,-33,80.5,-22,-36,-15,5,-4,-59
-4,78,82,-37,-43,80,-14,-31,-11,-2,1,-53
-14,74,88,-30,-51,81,-10,-30,-10,-7,0,-49
-15,74,89,-29.5,-52,81.5,-11,-32,-12,-7,-6,-47
-8,78,86,-35,-47,82,-17,-36,-15,-2,-15,-48
3,85,82,-44,-39.5,84.5,-26,-41,-19,6,-25,-52
16,91,75,-53.5,-29.5,83,-34,-46,-22,14,-30,-58
25,94,69,-59.5,-22,82.5,-39,-49,-22,19,-29,-63
25,93,68,-59,-21.5,81.5,-39,-48,-21,18,-23,-65
18,89,71,-53.5,-26.5,80,-34,-44,-19,13,-14,-64
8,83,75,-45.5,-33.5,79,-26,-38,-15,5,-5,-60
-4,78,82,-37,-43,80,-17,-32,-11,-2,0,-54
-14,76,90,-31,-52,83,-11,-29,-9,-6,-1,-50
-16,76,92,-30,-54,84,-12,-30,-10,-7,-8,-49
-9,80,89,-35.5,-49,84.5,-18,-35,-14,-3,-19,-51
3,87,84,-45,-40.5,86.5,-27,-41,-18,3,-29,-55
17,94,77,-55.5,-30,86.5,-36,-46,-21,11,-34,-61
27,97,70,-62,-21.5,84.5,-41,-48,-22,16,-32,-64
27,96,69,-61.5,-21,83.5,-40,-47,-21,16,-25,-65
19,91,72,-55,-26.5,82.5,-33,-41,-18,11,-16,-63
8,86,78,-47,-35,82,-23,-35,-13,3,-6,-58
-4,80,84,-38,-44,82,-14,-30,-9,-3,0,-53
-13,76,89,-31.5,-51,82.5,-10,-28,-7,-7,0,-49
-15,77,92,-31,-53.5,84.5,-11,-30,-8,-7,-7,-48
-7,81,88,-37,-47.5,84.5,-17,-35,-13,-3,-17,-50
6,87,81,-46.5,-37.5,84,-26,-41,-17,4,-27,-54
18,93,75,-55.5,-28.5,84,-36,-46,-20,12,-32,-60
26,95,69,-60.5,-21.5,82,-41,-49,-22,16,-32,-65
27,96,69,-61.5,-21,83.5,-39,-46,-20,16,-26,-66
19,92,73,-55.5,-27,83.5,-32,-42,-16,11,-17,-65
8,85,77,-46.5,-34.5,81,-23,-36,-12,2,-9,-60
-3,79,82,-38,-42.5,80.5,-13,-30,-9,-5,-2,-53
-13,76,89,-31.5,-51,82.5,-8,-28,-7,-9,-1,-48
-13,80,93,-33.5,-53,86.5,-8,-29,-8,-9,-8,-46
-7,86,93,-39.5,-50,89.5,-13,-33,-11,-5,-18,-47
4,91,87,-47.5,-41.5,89,-23,-39,-17,1,-30,-53
18,98,80,-58,-31,89,-32,-45,-21,7,-36,-60
26,101,75,-63.5,-24.5,88,-37,-48,-22,12,-36,-64
25,100,75,-62.5,-25,88.5,-35,-46,-20,14,-27,-65
18,95,77,-56.5,-29.5,86,-29,-41,-16,10,-16,-62
7,88,81,-47.5,-37,85.5,-20,-35,-12,3,-6,-58
-5,82,87,-38.5,-46,84.5,-11,-30,-8,-4,-1,-53
-15,78,93,-31.5,-54,85.5,-6,-27,-8,-10,-2,-49
-16,77,93,-30.5,-54.5,85,-7,-29,-8,-10,-9,-47
-10,81,91,-35.5,-50.5,86,-13,-33,-10,-5,-19,-48
2,88,86,-45,-42,87,-23,-40,-14,1,-30,-53
17,96,79,-56.5,-31,88.5,-32,-45,-17,8,-35,-59
26,101,75,-63.5,-24.5,88,-35,-46,-19,13,-35,-63
27,101,74,-64,-23.5,88.5,-33,-44,-17,13,-29,-64
21,98,77,-59.5,-28,88.5,-27,-38,-14,8,-19,-62
7,92,85,-49.5,-39,89.5,-18,-32,-10,0,-7,-56
-6,85,91,-39.5,-48.5,88,-10,-27,-6,-7,-2,-51
-14,82,96,-34,-55,89,-5,-24,-4,-11,-3,-46
-15,82,97,-33.5,-56,89.5,-5,-26,-6,-12,-10,-46
-9,86,95,-38.5,-52,90.5,-12,-32,-11,-8,-21,-48
3,91,88,-47,-42.5,90.5,-22,-37,-15,0,-31,-53
17,96,79,-56.5,-31,88.5,-30,-42,-18,6,-37,-59
25,99,74,-62,-24.5,87.5,-34,-43,-18,11,-37,-63
26,99,73,-62.5,-23.5,86,-32,-41,-15,11,-30,-64
21,97,76,-59,-27.5,87.5,-25,-35,-11,6,-21,-61
7,91,84,-49,-38.5,88.5,-16,-29,-7,-2,-12,-56
-7,84,91,-38.5,-49,87.5,-8,-25,-5,-12,-8,-52
-15,81,96,-33,-55.5,88.5,-4,-23,-5,-18,-9,-48
-15,83,98,-34,-56.5,90.5,-5,-25,-6,-19,-16,-47
-8,87,95,-39.5,-51.5,91,-11,-31,-10,-15,-26,-49
4,95,91,-49.5,-43.5,93,-21,-37,-14,-8,-36,-54
16,101,85,-58.5,-34.5,93,-29,-42,-18,-1,-42,-60
25,105,80,-65,-27.5,93.5,-33,-44,-19,2,-42,-64
26,104,78,-65,-26,91,-32,-43,-18,1,-35,-66
18,99,81,-58.5,-31.5,90,-26,-38,-15,-2,-25,-63
5,92,87,-48.5,-41,90.5,-17,-32,-10,-10,-15,-58
-7,86,93,-39.5,-50,89.5,-8,-26,-6,-18,-9,-53
-16,82,98,-33,-57,90,-4,-24,-5,-23,-11,-48
-17,81,98,-32,-57.5,89.5,-5,-26,-7,-24,-19,-47
-10,85,95,-37.5,-52.5,90,-11,-32,-11,-20,-28,-49
2,92,90,-47,-44,91,-20,-37,-15,-12,-38,-53
18,101,83,-59.5,-32.5,92,-28,-42,-18,-5,-43,-57
27,105,78,-66,-25.5,92.5,-33,-45,-22,-3,-43,-63
28,104,76,-66,-24,90,-33,-44,-22,-5,-37,-65
19,100,81,-59.5,-31,91.5,-26,-39,-18,-10,-26,-63
7,94,87,-50.5,-40,91.5,-16,-33,-13,-18,-17,-57
-5,87,92,-41,-48.5,89.5,-8,-28,-9,-26,-12,-52
-16,80,96,-32,-56,88,-4,-27,-9,-32,-14,-49
-17,80,97,-31.5,-57,88.5,-5,-28,-11,-32,-22,-48
-8,87,95,-39.5,-51.5,91,-9,-33,-15,-27,-30,-49
4,93,89,-48.5,-42.5,91,-20,-39,-21,-20,-39,-53
17,98,81,-57.5,-32,90.5,-28,-44,-25,-12,-44,-58
26,103,77,-64.5,-25.5,90,-33,-46,-26,-7,-42,-63
27,102,75,-64.5,-24,89.5,-32,-45,-24,-7,-35,-64
19,96,77,-57.5,-29,87.5,-26,-40,-21,-13,-26,-61
7,89,82,-48,-37.5,86.5,-17,-34,-17,-22,-16,-56
-5,83,88,-39,-46.5,85.5,-7,-28,-13,-30,-11,-50
-15,79,94,-32,-54.5,86.5,-3,-27,-13,-36,-12,-45
-17,78,95,-30.5,-56,86.5,-4,-29,-15,-37,-20,-44
-10,83,93,-36.5,-51.5,88,-10,-34,-19,-32,-30,-47
3,90,87,-46.5,-42,89.5,-20,-40,-25,-25,-41,-52
16,97,81,-56.5,-32.5,89,-29,-46,-29,-19,-47,-59
25,100,75,-62.5,-25,88.5,-34,-48,-32,-16,-46,-63
27,99,72,-63,-22.5,86.5,-34,-48,-32,-17,-40,-64
19,94,75,-56.5,-28,85.5,-27,-43,-29,-23,-31,-62
6,87,81,-46.5,-37.5,84,-17,-36,-25,-31,-21,-57
-6,80,86,-37,-46,83,-9,-31,-22,-38,-15,-51
-14,77,91,-31.5,-52.5,84,-4,-30,-21,-42,-15,-46
-14,78,92,-32,-53,85,-5,-31,-22,-41,-20,-43
-8,81,89,-36.5,-48.5,85,-11,-35,-26,-36,-29,-45
5,89,84,-47,-39.5,87.5,-20,-42,-30,-27,-38,-49
20,96,76,-58,-28,86,-29,-46,-34,-19,-42,-54
29,98,69,-63.5,-20,84.5,-35,-49,-36,-15,-40,-58
30,97,67,-63.5,-18.5,82,-36,-48,-35,-15,-32,-61
22,91,69,-56.5,-23.5,80,-30,-43,-32,-18,-21,-59
7,84,77,-45.5,-35,81.5,-19,-37,-28,-26,-10,-54
-3,77,80,-37,-41.5,78.5,-11,-33,-26,-35,-6,-48
-13,71,84,-29,-48.5,77.5,-6,-32,-27,-42,-8,-44
-15,71,86,-28,-50.5,78.5,-7,-33,-29,-41,-16,-43
-4,77,81,-36.5,-42.5,79,-14,-38,-32,-35,-26,-45
10,85,75,-47.5,-32.5,80,-23,-45,-38,-28,-35,-49
22,93,71,-57.5,-24.5,82,-33,-50,-42,-19,-40,-55
29,96,67,-62.5,-19,82.5,-38,-53,-45,-14,-38,-60
31,96,65,-63.5,-17,81.5,-37,-53,-44,-13,-30,-60
24,91,67,-57.5,-21.5,79,-31,-48,-40,-17,-19,-58
11,82,71,-46.5,-30,77.5,-22,-42,-36,-25,-9,-55
-3,73,76,-35,-39.5,74.5,-13,-36,-32,-32,-3,-49
-15,67,82,-26,-48.5,74.5,-9,-34,-30,-37,-3,-44
-15,68,83,-26.5,-49,75.5,-10,-35,-31,-35,-10,-42
-5,74,79,-34.5,-42,76.5,-15,-39,-34,-29,-18,-44
8,81,73,-44.5,-32.5,77,-25,-44,-38,-20,-26,-49
19,86,67,-52.5,-24,77.5,-33,-49,-41,-11,-32,-55
27,89,62,-58,-17.5,76.5,-38,-52,-42,-6,-31,-59
30,91,61,-60.5,-15.5,76,-37,-50,-40,-6,-24,-60
22,87,65,-54.5,-21.5,76,-30,-45,-36,-10,-14,-58
9,80,71,-44.5,-31,76.5,-21,-39,-32,-19,-4,-54
-5,73,78,-34,-41.5,75.5,-12,-35,-30,-28,0,-49
-14,70,84,-28,-49,77,-8,-32,-29,-32,0,-45
-15,71,86,-28,-50.5,78.5,-9,-33,-29,-31,-7,-43
-6,76,82,-35,-44,79,-16,-38,-32,-25,-16,-44
8,82,74,-45,-33,78,-26,-44,-35,-16,-26,-48
22,90,68,-56,-23,79,-33,-48,-37,-6,-31,-53
30,94,64,-62,-17,79,-37,-50,-39,-2,-33,-59
30,94,64,-62,-17,79,-36,-49,-38,-2,-27,-61
24,91,67,-57.5,-21.5,79,-29,-44,-34,-6,-14,-59
11,83,72,-47,-30.5,78.5,-20,-37,-28,-13,-3,-53
-3,74,77,-35.5,-40,75.5,-11,-31,-24,-20,1,-48
-13,69,82,-28,-47.5,75.5,-5,-29,-23,-24,0,-44
-13,70,83,-28.5,-48,76.5,-7,-31,-25,-25,-6,-43
-5,75,80,-35,-42.5,77.5,-13,-35,-29,-20,-15,-44
7,82,75,-44.5,-34,79.5,-23,-41,-33,-12,-26,-48
20,89,69,-54.5,-24.5,79,-33,-47,-37,-5,-32,-53
28,92,64,-60,-18,78,-37,-49,-38,-1,-31,-57
30,91,61,-60.5,-15.5,76,-35,-47,-36,0,-24,-59
22,86,64,-54,-21,75,-29,-41,-32,-4,-14,-58
9,79,70,-44,-30.5,75.5,-20,-35,-26,-11,-4,-52
-4,73,77,-34.5,-40.5,75,-11,-31,-23,-19,0,-47
-13,70,83,-28.5,-48,76.5,-5,-29,-22,-24,0,-44
-14,71,85,-28.5,-49.5,78,-7,-30,-24,-25,-6,-43
-7,74,81,-33.5,-44,77.5,-13,-35,-27,-21,-15,-44
6,81,75,-43.5,-34.5,78,-23,-41,-31,-13,-26,-49
20,88,68,-54,-24,78,-31,-46,-33,-5,-31,-54
27,90,63,-58.5,-18,77.5,-35,-47,-33,0,-30,-56
28,89,61,-58.5,-16.5,75,-34,-45,-32,0,-24,-59
22,87,65,-54.5,-21.5,76,-28,-41,-29,-3,-14,-58
11,82,71,-46.5,-30,77.5,-19,-34,-24,-11,-3,-52
-2,74,76,-36,-39,75,-10,-29,-21,-19,1,-47
-13,70,83,-28.5,-48,76.5,-4,-27,-19,-24,0,-43
-13,72,85,-29.5,-49,78.5,-4,-27,-19,-23,-5,-41
-3,76,79,-36.5,-41,77.5,-11,-32,-23,-18,-16,-43
9,83,74,-46,-32.5,79.5,-20,-38,-27,-10,-27,-48
20,89,69,-54.5,-24.5,79,-28,-43,-31,-2,-34,-54
28,93,65,-60.5,-18.5,79,-34,-46,-34,1,-34,-59
29,93,64,-61,-17.5,79.5,-34,-45,-33,2,-28,-61
22,87,65,-54.5,-21.5,76,-27,-41,-29,-2,-18,-60
9,79,70,-44,-30.5,75.5,-17,-34,-24,-10,-7,-55
-4,72,76,-34,-40,74,-7,-28,-20,-18,-2,-49
-14,69,83,-27.5,-48.5,76,-1,-26,-18,-23,-1,-45
-14,71,85,-28.5,-49.5,78,-2,-27,-19,-24,-6,-42
-7,77,84,-35,-45.5,80.5,-8,-32,-22,-19,-16,-43
5,83,78,-44,-36.5,81.5,-18,-38,-27,-11,-27,-48
20,89,69,-54.5,-24.5,79,-27,-43,-30,-1,-32,-54
30,93,63,-61.5,-16.5,78,-32,-44,-31,4,-31,-58
31,91,60,-61,-14.5,76.5,-31,-42,-29,5,-25,-61
23,85,62,-54,-19.5,74.5,-25,-37,-25,1,-15,-60
8,77,69,-42.5,-30.5,73,-15,-31,-20,-6,-4,-55
-5,71,76,-33,-40.5,73.5,-6,-25,-17,-14,1,-48
-14,69,83,-27.5,-48.5,76,0,-22,-15,-20,0,-44
-13,71,84,-29,-48.5,77.5,-1,-24,-16,-22,-7,-43
-8,75,83,-33.5,-45.5,79,-8,-29,-19,-18,-17,-45
2,82,80,-42,-39,81,-18,-36,-24,-9,-28,-49
17,88,71,-52.5,-27,80.5,-27,-41,-28,-1,-35,-56
26,91,65,-58.5,-19.5,78,-33,-44,-29,4,-35,-61
29,91,62,-60,-16.5,77.5,-32,-42,-27,5,-28,-63
23,86,63,-54.5,-20,75.5,-26,-37,-24,1,-17,-61
10,78,68,-44,-29,73,-16,-30,-18,-5,-8,-57
-4,70,74,-33,-39,72,-8,-25,-15,-14,-1,-52
-13,67,80,-27,-46.5,73.5,-3,-23,-14,-21,0,-46
-15,69,84,-27,-49.5,76.5,-3,-24,-14,-20,-4,-43
-10,73,83,-31.5,-46.5,78,-9,-28,-18,-16,-15,-45
4,81,77,-42.5,-36.5,79,-18,-35,-23,-8,-27,-50
19,89,70,-54,-25.5,80.5,-27,-40,-27,-1,-35,-57
28,93,65,-60.5,-18.5,79,-33,-42,-29,2,-36,-63
30,93,63,-61.5,-16.5,78,-33,-41,-28,2,-30,-67
21,87,66,-54,-22.5,77.5,-27,-35,-24,0,-18,-64
7,79,72,-43,-32.5,76.5,-17,-29,-17,-6,-5,-58
-5,72,77,-33.5,-41,74.5,-7,-23,-12,-14,0,-53
-16,66,82,-25,-49,74,-1,-20,-10,-19,0,-48
-19,67,86,-24,-52.5,76.5,0,-21,-10,-19,-5,-45
-9,73,82,-32,-45.5,77.5,-5,-25,-13,-14,-13,-45
3,78,75,-40.5,-36,77.5,-16,-32,-18,-6,-25,-50
15,82,67,-48.5,-26,75.5,-26,-38,-24,0,-33,-57
24,87,63,-55.5,-19.5,75,-31,-41,-27,3,-36,-63
25,86,61,-55.5,-18,74.5,-31,-40,-26,2,-31,-66
17,81,64,-49,-23.5,73.5,-25,-35,-23,-2,-22,-65
4,74,70,-39,-33,72,-15,-29,-19,-11,-13,-62
-11,66,77,-27.5,-44,71.5,-5,-24,-15,-19,-6,-57
-20,64,84,-22,-52,74,0,-21,-13,-24,-6,-51
-19,65,84,-23,-51.5,74.5,0,-22,-15,-24,-12,-49
-9,72,81,-31.5,-45,76.5,-5,-26,-17,-17,-21,-49
3,79,76,-41,-36.5,78.5,-15,-32,-21,-8,-31,-53
16,86,70,-51,-27,78,-25,-39,-26,0,-38,-59
27,91,64,-59,-18.5,78.5,-30,-41,-28,4,-39,-64
27,89,62,-58,-17.5,76.5,-29,-40,-28,2,-34,-67
19,83,64,-51,-22.5,74.5,-23,-36,-25,-2,-25,-65
7,76,69,-41.5,-31,73.5,-12,-28,-19,-9,-13,-60
-5,70,75,-32.5,-40,72.5,-3,-22,-15,-17,-6,-54
-14,64,78,-25,-46,71,1,-20,-13,-22,-7,-50
-16,64,80,-24,-48,72,1,-21,-14,-22,-13,-48
-10,69,79,-29.5,-44.5,74,-3,-26,-18,-18,-22,-50
0,74,74,-37,-37,74,-14,-34,-24,-11,-35,-55
15,82,67,-48.5,-26,75.5,-24,-40,-29,-3,-41,-61
26,87,61,-56.5,-17.5,74,-29,-41,-30,1,-41,-65
26,85,59,-55.5,-16.5,72,-29,-40,-29,2,-33,-67
17,79,62,-48,-22.5,71.5,-23,-35,-25,-1,-23,-65
4,72,68,-38,-32,70,-13,-28,-20,-9,-12,-61
-6,68,74,-31,-40,71,-3,-22,-17,-17,-6,-54
-15,66,81,-25.5,-48,73.5,1,-20,-15,-22,-5,-49
-19,64,83,-22.5,-51,73.5,0,-23,-18,-23,-13,-47
-11,69,80,-29,-45.5,74.5,-5,-27,-21,-19,-23,-47
3,78,75,-40.5,-36,77.5,-15,-34,-26,-11,-35,-52
16,85,69,-50.5,-26.5,77,-24,-40,-31,-5,-42,-60
26,88,62,-57,-18,75,-30,-42,-33,-1,-43,-65
27,87,60,-57,-16.5,74.5,-29,-41,-33,-1,-37,-67
21,83,62,-52,-20.5,73.5,-23,-37,-30,-6,-27,-66
6,77,71,-41.5,-32.5,74,-12,-30,-25,-13,-14,-61
-9,69,78,-30,-43.5,73.5,-3,-25,-21,-19,-7,-54
-19,64,83,-22.5,-51,73.5,0,-22,-18,-23,-8,-49
-18,65,83,-23.5,-50.5,74,0,-23,-18,-21,-13,-47
-10,71,81,-30.5,-45.5,76,-6,-28,-22,-15,-22,-49
2,76,74,-39,-36,75,-17,-35,-28,-7,-32,-53
17,84,67,-50.5,-25,76.5,-27,-41,-33,-1,-37,-58
26,88,62,-57,-18,75,-31,-43,-34,2,-38,-62
27,88,61,-57.5,-17,75.5,-30,-41,-33,0,-32,-65
19,83,64,-51,-22.5,74.5,-25,-38,-31,-5,-24,-64
4,77,73,-40.5,-34.5,75,-16,-33,-28,-15,-15,-61
-7,71,78,-32,-42.5,74.5,-7,-27,-25,-22,-9,-55
-14,68,82,-27,-48,75,-1,-24,-22,-25,-8,-50
-15,69,84,-27,-49.5,76.5,-2,-25,-22,-23,-14,-47
-8,72,80,-32,-44,76,-8,-29,-25,-17,-23,-49
3,78,75,-40.5,-36,77.5,-17,-36,-30,-8,-31,-53
19,86,67,-52.5,-24,77.5,-26,-41,-34,0,-35,-58
27,88,61,-57.5,-17,75.5,-32,-44,-36,2,-35,-61
27,86,59,-56.5,-16,73.5,-32,-43,-35,2,-29,-63
20,82,62,-51,-21,72,-25,-37,-30,-2,-19,-60
6,76,70,-41,-32,73,-15,-31,-26,-11,-9,-55
-5,70,75,-32.5,-40,72.5,-7,-27,-23,-19,-5,-49
-13,67,80,-27,-46.5,73.5,-4,-24,-23,-24,-6,-45
-14,68,82,-27,-48,75,-4,-26,-24,-24,-12,-43
-8,72,80,-32,-44,76,-10,-31,-28,-20,-22,-45
5,79,74,-42,-34.5,77.5,-20,-38,-33,-12,-32,-50
19,85,66,-52,-23.5,76.5,-29,-44,-37,-4,-38,-56
27,88,61,-57.5,-17,75.5,-33,-45,-38,1,-37,-61
28,88,60,-58,-16,74,-32,-43,-36,1,-29,-61
20,84,64,-52,-22,74,-26,-38,-33,-3,-19,-59
5,77,72,-41,-33.5,75.5,-17,-32,-28,-10,-9,-55
-8,70,78,-31,-43,74,-9,-27,-25,-18,-4,-51
-16,68,84,-26,-50,76,-4,-26,-24,-24,-5,-46
-16,70,86,-27,-51,78,-6,-28,-27,-25,-12,-45
-9,74,83,-32.5,-46,78.5,-14,-34,-31,-22,-22,-48
3,82,79,-42.5,-38,81.5,-24,-41,-37,-14,-33,-53
17,89,72,-53,-27.5,81.5,-32,-46,-40,-7,-38,-59
25,91,66,-58,-20.5,79.5,-37,-47,-41,-2,-37,-62
26,90,64,-58,-19,77,-35,-45,-38,-1,-29,-63
19,85,66,-52,-23.5,76.5,-28,-39,-34,-5,-18,-59
7,78,71,-42.5,-32,75.5,-19,-33,-29,-12,-7,-54
-4,73,77,-34.5,-40.5,75,-10,-28,-27,-19,-2,-48
-12,70,82,-29,-47,76,-6,-26,-26,-24,-3,-44
-13,70,83,-28.5,-48,76.5,-7,-28,-28,-25,-10,-43
-5,74,79,-34.5,-42,76.5,-13,-33,-31,-20,-20,-45
8,81,73,-44.5,-32.5,77,-23,-38,-34,-10,-29,-49
20,88,68,-54,-24,78,-32,-44,-37,-2,-35,-54
27,92,65,-59.5,-19,79.5,-36,-47,-39,1,-36,-59
28,92,64,-60,-18,78,-36,-45,-38,0,-30,-61
20,87,67,-53.5,-23.5,77,-30,-41,-36,-6,-22,-60
8,81,73,-44.5,-32.5,77,-21,-35,-31,-14,-12,-55
-5,75,80,-35,-42.5,77.5,-13,-30,-27,-21,-7,-49
-15,70,85,-27.5,-50,77.5,-8,-28,-25,-25,-8,-45
-15,71,86,-28,-50.5,78.5,-9,-29,-26,-23,-14,-43
-8,75,83,-33.5,-45.5,79,-16,-35,-32,-19,-23,-46
5,83,78,-44,-36.5,81.5,-26,-42,-38,-12,-33,-50
18,88,70,-53,-26,79,-35,-47,-41,-3,-37,-55
24,89,65,-56.5,-20.5,77,-39,-48,-41,1,-36,-59
27,89,62,-58,-17.5,76.5,-37,-45,-37,2,-29,-60
21,86,65,-53.5,-22,76.5,-31,-40,-34,-1,-19,-58
6,77,71,-41.5,-32.5,74,-23,-35,-30,-10,-9,-55
-7,72,79,-32.5,-43,75.5,-15,-30,-28,-19,-5,-50
-14,70,84,-28,-49,77,-10,-29,-28,-24,-7,-45
-14,73,87,-29.5,-50.5,80,-13,-31,-29,-24,-15,-44
-7,78,85,-35.5,-46,81.5,-20,-37,-34,-21,-27,-45
2,83,81,-42.5,-39.5,82,-29,-43,-39,-14,-38,-51
15,90,75,-52.5,-30,83.5,-37,-49,-43,-6,-42,-56
26,94,68,-60,-21,81,-41,-50,-44,0,-38,-60
27,93,66,-60,-19.5,80.5,-40,-47,-41,1,-29,-60
20,88,68,-54,-24,78,-34,-41,-36,-2,-18,-58
7,80,73,-43.5,-33,77.5,-24,-35,-32,-11,-9,-54
-7,71,78,-32,-42.5,74.5,-16,-31,-29,-20,-5,-49
-16,68,84,-26,-50,76,-11,-29,-29,-25,-6,-44
-14,73,87,-29.5,-50.5,80,-13,-30,-29,-23,-12,-42
-5,79,84,-37,-44.5,81.5,-19,-34,-32,-17,-20,-42
6,83,77,-44.5,-35.5,80,-28,-41,-36,-9,-30,-48
19,89,70,-54,-25.5,80.5,-38,-47,-41,-3,-37,-55
27,91,64,-59,-18.5,78.5,-43,-51,-43,0,-37,-61
28,92,64,-60,-18,78,-41,-49,-42,0,-31,-63
22,90,68,-56,-23,79,-35,-44,-38,-5,-22,-61
5,82,77,-43.5,-36,80.5,-27,-40,-35,-15,-14,-57
-8,76,84,-34,-46,80,-18,-35,-32,-23,-10,-51
-13,76,89,-31.5,-51,82.5,-13,-32,-31,-27,-10,-46
-14,76,90,-31,-52,83,-14,-34,-32,-26,-17,-44
-7,78,85,-35.5,-46,81.5,-22,-38,-35,-21,-26,-46
7,85,78,-46,-35.5,82.5,-32,-44,-38,-12,-35,-50
19,91,72,-55,-26.5,82.5,-40,-49,-42,-4,-39,-55
27,93,66,-60,-19.5,80.5,-44,-51,-43,0,-36,-59
25,90,65,-57.5,-20,78.5,-43,-50,-43,-1,-28,-60
16,84,68,-50,-26,76,-37,-45,-40,-7,-19,-59
4,79,75,-41.5,-35.5,77,-27,-39,-35,-14,-9,-54
-5,76,81,-35.5,-43,78.5,-18,-34,-31,-21,-3,-47
-12,75,87,-31.5,-49.5,81,-14,-31,-30,-25,-4,-43
-14,74,88,-30,-51,81,-15,-33,-32,-25,-12,-41
-7,76,83,-34.5,-45,79.5,-21,-38,-35,-20,-22,-44
5,83,78,-44,-36.5,81.5,-30,-43,-39,-12,-32,-48
18,89,71,-53.5,-26.5,80,-39,-48,-42,-5,-38,-54
26,92,66,-59,-20,79,-43,-50,-43,0,-38,-58
27,92,65,-59.5,-19,79.5,-42,-48,-42,0,-30,-59
20,87,67,-53.5,-23.5,77,-36,-44,-38,-5,-19,-58
7,81,74,-44,-33.5,78.5,-28,-38,-34,-12,-9,-53
-4,76,80,-36,-42,78,-18,-33,-30,-20,-5,-48
-13,72,85,-29.5,-49,78.5,-14,-31,-30,-25,-6,-44
-15,73,88,-29,-51.5,80.5,-16,-34,-32,-26,-14,-43
-8,79,87,-35.5,-47.5,83,-23,-40,-36,-21,-25,-46
4,87,83,-45.5,-39.5,85,-32,-45,-41,-14,-36,-52
17,93,76,-55,-29.5,85.5,-41,-50,-43,-6,-40,-57
25,96,71,-60.5,-23,84.5,-46,-52,-44,-2,-39,-61
27,96,69,-61.5,-21,83.5,-44,-50,-43,-2,-33,-62
22,92,70,-57,-24,81,-38,-45,-40,-7,-22,-60
8,84,76,-46,-34,80,-28,-39,-36,-16,-12,-54
-6,75,81,-34.5,-43.5,78,-20,-35,-33,-23,-6,-48
-15,71,86,-28,-50.5,78.5,-15,-33,-31,-26,-6,-42
-15,71,86,-28,-50.5,78.5,-15,-33,-30,-23,-11,-39
-8,75,83,-33.5,-45.5,79,-21,-38,-33,-18,-21,-42
5,82,77,-43.5,-36,80.5,-31,-45,-39,-11,-32,-49
18,89,71,-53.5,-26.5,80,-40,-50,-43,-4,-38,-54
26,93,67,-59.5,-20.5,80,-45,-52,-45,0,-38,-58
26,93,67,-59.5,-20.5,80,-44,-51,-43,-1,-32,-60
18,89,71,-53.5,-26.5,80,-37,-46,-40,-6,-22,-59
5,82,77,-43.5,-36,80.5,-28,-41,-35,-15,-13,-55
-7,76,83,-34.5,-45,79.5,-19,-35,-32,-23,-7,-49
-14,74,88,-30,-51,81,-14,-33,-30,-26,-6,-43
-14,74,88,-30,-51,81,-15,-35,-31,-25,-12,-41
-7,78,85,-35.5,-46,81.5,-22,-40,-35,-22,-23,-44
5,85,80,-45,-37.5,83.5,-33,-47,-41,-16,-33,-49
18,92,74,-55,-28,83,-41,-52,-44,-8,-38,-54
26,95,69,-60.5,-21.5,82,-45,-54,-45,-4,-37,-59
28,95,67,-61.5,-19.5,81,-44,-52,-43,-4,-30,-61
22,92,70,-57,-24,81,-37,-45,-38,-8,-19,-58
7,84,77,-45.5,-35,81.5,-27,-39,-34,-16,-9,-53
-6,75,81,-34.5,-43.5,78,-18,-34,-31,-25,-5,-48
-14,71,85,-28.5,-49.5,78,-14,-32,-30,-30,-6,-44
-17,70,87,-26.5,-52,78.5,-16,-35,-32,-30,-13,-43
-9,75,84,-33,-46.5,79.5,-22,-39,-36,-25,-23,-45
5,83,78,-44,-36.5,81.5,-31,-45,-40,-16,-32,-49
19,90,71,-54.5,-26,81.5,-39,-50,-43,-8,-36,-54
28,93,65,-60.5,-18.5,79,-44,-51,-44,-4,-36,-58
28,91,63,-59.5,-17.5,77,-43,-50,-42,-5,-30,-61
19,88,69,-53.5,-25,79.5,-36,-46,-39,-10,-21,-61
4,82,78,-43,-37,80,-26,-40,-36,-19,-12,-57
-9,76,85,-33.5,-47,80.5,-18,-36,-33,-27,-7,-51
-16,74,90,-29,-53,82,-14,-35,-33,-31,-7,-46
-16,75,91,-29.5,-53.5,83,-17,-37,-35,-31,-14,-45
-8,78,86,-35,-47,82,-23,-41,-38,-27,-24,-46
5,86,81,-45.5,-38,84.5,-31,-46,-41,-17,-33,-50
19,93,74,-56,-27.5,84.5,-39,-50,-43,-7,-36,-55
28,95,67,-61.5,-19.5,81,-44,-52,-44,-2,-33,-59
28,93,65,-60.5,-18.5,79,-43,-50,-42,-2,-25,-59
20,88,68,-54,-24,78,-36,-45,-39,-7,-16,-57
6,81,75,-43.5,-34.5,78,-27,-39,-35,-17,-7,-53
-8,74,82,-33,-45,78,-18,-35,-32,-25,-3,-48
-17,72,89,-27.5,-53,80.5,-13,-33,-32,-29,-3,-43
-15,74,89,-29.5,-52,81.5,-16,-35,-33,-27,-9,-42
-8,79,87,-35.5,-47.5,83,-21,-39,-36,-22,-19,-44
4,84,80,-44,-38,82,-30,-45,-41,-15,-31,-49
19,91,72,-55,-26.5,82.5,-40,-51,-44,-9,-37,-55
26,94,68,-60,-21,81,-44,-52,-45,-4,-37,-60
27,94,67,-60.5,-20,81.5,-41,-50,-43,-3,-29,-61
21,90,69,-55.5,-24,80.5,-35,-44,-39,-7,-17,-59
7,83,76,-45,-34.5,80.5,-27,-39,-35,-16,-8,-54
-8,75,83,-33.5,-45.5,79,-19,-35,-32,-24,-4,-49
-17,72,89,-27.5,-53,80.5,-14,-32,-30,-29,-5,-44
-16,73,89,-28.5,-52.5,81,-14,-34,-32,-28,-12,-43
-9,76,85,-33.5,-47,80.5,-19,-38,-35,-24,-22,-45
2,81,79,-41.5,-38.5,80,-30,-45,-40,-17,-32,-50
16,87,71,-51.5,-27.5,79,-41,-51,-44,-9,-37,-56
26,91,65,-58.5,-19.5,78,-46,-53,-46,-5,-37,-61
28,93,65,-60.5,-18.5,79,-45,-52,-45,-6,-31,-62
23,93,70,-58,-23.5,82.5,-37,-46,-41,-11,-20,-59
9,87,78,-48,-34.5,83.5,-27,-40,-36,-18,-10,-54
-4,79,83,-37.5,-43.5,81,-19,-35,-33,-26,-5,-49
-13,75,88,-31,-50.5,81.5,-14,-33,-32,-30,-5,-44
-14,76,90,-31,-52,83,-16,-35,-32,-28,-11,-42
-4,81,85,-38.5,-44.5,83,-23,-39,-35,-22,-21,-44
7,87,80,-47,-36.5,84.5,-33,-46,-40,-14,-30,-49
17,92,75,-54.5,-29,84.5,-41,-51,-44,-7,-35,-54
26,95,69,-60.5,-21.5,82,-44,-52,-44,-3,-35,-59
29,95,66,-62,-18.5,81.5,-42,-49,-42,-3,-28,-60
22,89,67,-55.5,-22.5,78,-36,-45,-38,-8,-18,-58
8,83,75,-45.5,-33.5,79,-27,-39,-34,-16,-8,-53
-7,77,84,-35,-45.5,80.5,-19,-34,-31,-24,-3,-47
-16,74,90,-29,-53,82,-15,-32,-30,-28,-4,-43
-15,76,91,-30.5,-53,83.5,-16,-33,-31,-26,-11,-41
-7,81,88,-37,-47.5,84.5,-23,-38,-34,-21,-22,-43
3,88,85,-45.5,-41,87.5,-33,-45,-39,-14,-33,-49
16,95,79,-55.5,-31.5,87,-41,-50,-41,-6,-37,-55
26,98,72,-62,-23,85,-45,-51,-42,-1,-34,-58
28,99,71,-63.5,-21.5,85,-44,-49,-40,0,-26,-59
22,96,74,-59,-26,85,-37,-44,-35,-5,-16,-56
9,90,81,-49.5,-36,86.5,-26,-37,-30,-12,-5,-51
-5,83,88,-39,-46.5,85.5,-19,-33,-28,-20,-1,-45
-15,80,95,-32.5,-55,87.5,-16,-32,-28,-25,-1,-41
-16,82,98,-33,-57,90,-17,-34,-29,-25,-8,-40
-10,87,97,-38.5,-53.5,92,-23,-39,-32,-21,-19,-42
2,94,92,-48,-45,93,-33,-46,-37,-14,-30,-48
17,101,84,-59,-33.5,93.5,-41,-50,-40,-6,-35,-54
27,105,78,-66,-25.5,92.5,-45,-51,-40,-1,-34,-57
27,105,78,-66,-25.5,92.5,-45,-50,-38,-1,-27,-58
19,103,84,-61,-32.5,94.5,-40,-45,-35,-5,-16,-55
5,98,93,-51.5,-44,96.5,-31,-40,-30,-13,-6,-50
-7,94,101,-43.5,-54,97.5,-23,-35,-26,-20,0,-44
-14,91,105,-38.5,-59.5,98,-19,-34,-24,-23,0,-39
-15,91,106,-38,-60.5,98.5,-21,-36,-25,-25,-7,-37
-8,94,102,-43,-55,98,-28,-41,-29,-22,-17,-39
4,99,95,-51.5,-45.5,97,-39,-48,-35,-15,-28,-45
18,106,88,-62,-35,97,-48,-53,-40,-8,-34,-51
28,109,81,-68.5,-26.5,95,-52,-56,-42,-4,-33,-55
30,108,78,-69,-24,93,-51,-54,-41,-3,-25,-56
23,105,82,-64,-29.5,94.5,-44,-48,-37,-8,-15,-53
8,97,89,-52.5,-40.5,93,-35,-42,-33,-16,-4,-49
-5,88,93,-41.5,-49,90.5,-25,-36,-30,-23,0,-44
-13,84,97,-35.5,-55,90.5,-19,-33,-28,-29,0,-39
-13,83,96,-35,-54.5,89.5,-19,-35,-29,-30,-7,-37
-6,87,93,-40.5,-49.5,90,-26,-40,-33,-26,-18,-40
7,94,87,-50.5,-40,91.5,-35,-46,-38,-17,-29,-45
21,101,80,-61,-29.5,91.5,-44,-51,-41,-9,-34,-50
29,103,74,-66,-22.5,89.5,-49,-53,-44,-4,-34,-55
29,101,72,-65,-21.5,87.5,-49,-53,-44,-6,-29,-58
23,96,73,-59.5,-25,85.5,-44,-49,-41,-11,-19,-56
9,90,81,-49.5,-36,86.5,-35,-43,-37,-19,-8,-51
-4,83,87,-39.5,-45.5,85,-26,-38,-34,-27,-2,-44
-12,79,91,-33.5,-51.5,85,-20,-36,-32,-33,-2,-39
-14,80,94,-33,-54,87,-21,-37,-33,-32,-8,-37
-6,84,90,-39,-48,87,-27,-42,-37,-27,-18,-38
10,91,81,-50.5,-35.5,86,-37,-48,-42,-19,-29,-43
24,96,72,-60,-24,84,-47,-52,-45,-10,-34,-48
33,99,66,-66,-16.5,83.5,-54,-55,-47,-4,-34,-53
34,99,65,-66.5,-15.5,82,-53,-54,-46,-3,-27,-54
24,94,70,-59,-23,82,-46,-48,-42,-7,-17,-52
11,87,76,-49,-32.5,82.5,-37,-42,-38,-15,-7,-47
-2,80,82,-39,-42,81,-28,-38,-36,-24,-2,-42
-11,74,85,-31.5,-48,79.5,-24,-37,-35,-31,-3,-39
-13,72,85,-29.5,-49,78.5,-23,-38,-37,-32,-10,-38
-3,76,79,-36.5,-41,77.5,-27,-42,-40,-27,-19,-39
10,83,73,-46.5,-31.5,78,-36,-47,-45,-18,-30,-43
23,90,67,-56.5,-22,79.5,-45,-53,-49,-10,-37,-49
29,94,65,-61.5,-18,80.5,-50,-55,-49,-4,-36,-54
29,92,63,-60.5,-17,78.5,-47,-52,-47,-4,-29,-57
21,86,65,-53.5,-22,76.5,-38,-46,-43,-8,-20,-56
5,76,71,-40.5,-33,74.5,-27,-40,-38,-17,-11,-53
-9,69,78,-30,-43.5,73.5,-18,-35,-34,-26,-6,-49
-16,69,85,-26.5,-50.5,77,-10,-30,-30,-29,-5,-43
-15,71,86,-28,-50.5,78.5,-9,-31,-30,-28,-11,-40
-9,75,84,-33,-46.5,79.5,-16,-36,-34,-24,-21,-42
5,82,77,-43.5,-36,80.5,-26,-42,-39,-16,-32,-47
19,88,69,-53.5,-25,79.5,-35,-48,-43,-8,-39,-53
26,89,63,-57.5,-18.5,76,-40,-50,-46,-3,-40,-57
27,87,60,-57,-16.5,74.5,-40,-49,-46,-4,-35,-60
19,81,62,-50,-21.5,72.5,-35,-45,-43,-10,-25,-59
6,74,68,-40,-31,71,-25,-38,-39,-17,-13,-55
-7,67,74,-30,-40.5,70.5,-15,-32,-35,-25,-7,-49
-16,63,79,-23.5,-47.5,71,-10,-30,-33,-31,-8,-44
-16,66,82,-25,-49,74,-11,-32,-35,-31,-14,-42
-9,70,79,-30.5,-44,74.5,-17,-38,-38,-26,-24,-44
2,76,74,-39,-36,75,-27,-44,-43,-18,-35,-49
16,83,67,-49.5,-25.5,75,-35,-50,-47,-10,-41,-55
26,86,60,-56,-17,73,-40,-51,-48,-5,-40,-59
26,85,59,-55.5,-16.5,72,-39,-49,-47,-5,-33,-61
18,79,61,-48.5,-21.5,70,-33,-44,-43,-10,-23,-59
4,70,66,-37,-31,68,-23,-38,-39,-18,-13,-54
-10,62,72,-26,-41,67,-14,-33,-35,-27,-7,-48
-20,58,78,-19,-49,68,-9,-31,-33,-32,-8,-43
-19,62,81,-21.5,-50,71.5,-9,-32,-34,-32,-14,-41
-11,68,79,-28.5,-45,73.5,-16,-37,-37,-27,-24,-43
1,73,72,-37,-35.5,73.5,-25,-43,-42,-18,-35,-48
16,81,65,-48.5,-24.5,73,-34,-48,-45,-9,-41,-54
26,85,59,-55.5,-16.5,72,-39,-50,-47,-5,-41,-59
27,84,57,-55.5,-15,71.5,-38,-49,-46,-5,-34,-60
19,80,61,-49.5,-21,71.5,-32,-43,-42,-9,-23,-59
5,72,67,-38.5,-31,70.5,-23,-37,-37,-18,-12,-54
-8,65,73,-28.5,-40.5,69,-14,-32,-33,-26,-7,-48
-17,61,78,-22,-47.5,69.5,-9,-29,-32,-31,-8,-44
-17,62,79,-22.5,-48,70.5,-10,-31,-33,-30,-15,-42
-9,67,76,-29,-42.5,71.5,-17,-36,-37,-25,-26,-45
3,75,72,-39,-34.5,74.5,-27,-43,-42,-17,-36,-50
17,83,66,-50,-24.5,75.5,-36,-48,-45,-9,-42,-56
26,86,60,-56,-17,73,-41,-50,-47,-5,-42,-61
26,85,59,-55.5,-16.5,72,-40,-49,-46,-6,-36,-62
19,80,61,-49.5,-21,71.5,-33,-44,-42,-11,-25,-60
6,73,67,-39.5,-30.5,70,-24,-38,-36,-19,-14,-54
-7,67,74,-30,-40.5,70.5,-15,-33,-33,-27,-10,-49
-17,63,80,-23,-48.5,71.5,-10,-31,-31,-32,-11,-45
-18,64,82,-23,-50,73,-12,-32,-32,-32,-18,-43
-10,69,79,-29.5,-44.5,74,-18,-37,-36,-26,-27,-45
4,77,73,-40.5,-34.5,75,-28,-42,-39,-17,-36,-49
17,83,66,-50,-24.5,75.5,-37,-48,-43,-10,-41,-55
25,85,60,-55,-17.5,73.5,-42,-50,-44,-6,-41,-59
24,84,60,-54,-18,72,-39,-47,-42,-6,-33,-60
16,80,64,-48,-24,72,-33,-43,-39,-10,-21,-58
4,74,70,-39,-33,72,-24,-37,-35,-18,-11,-53
-7,68,75,-30.5,-41,71.5,-15,-32,-32,-25,-6,-47
-16,64,80,-24,-48,72,-11,-30,-31,-30,-7,-43
-17,65,82,-24,-49.5,73.5,-13,-32,-32,-30,-15,-42
-9,70,79,-30.5,-44,74.5,-19,-37,-36,-25,-25,-44
4,77,73,-40.5,-34.5,75,-29,-43,-40,-17,-35,-49
17,83,66,-50,-24.5,75.5,-37,-48,-44,-9,-40,-55
24,86,62,-55,-19,74,-42,-50,-44,-5,-39,-59
25,86,61,-55.5,-18,74.5,-40,-47,-42,-5,-32,-60
18,81,63,-49.5,-22.5,72,-33,-42,-39,-10,-22,-58
2,73,71,-37.5,-34.5,72,-25,-36,-34,-18,-13,-54
-10,66,76,-28,-43,71,-16,-32,-31,-26,-8,-49
-18,64,82,-23,-50,73,-11,-30,-29,-31,-9,-45
-17,66,83,-24.5,-50,74.5,-12,-31,-30,-31,-17,-43
-8,72,80,-32,-44,76,-18,-35,-33,-26,-26,-45
4,78,74,-41,-35,76,-29,-42,-38,-18,-35,-50
16,83,67,-49.5,-25.5,75,-37,-47,-42,-11,-39,-55
24,86,62,-55,-19,74,-42,-49,-42,-7,-38,-60
24,86,62,-55,-19,74,-41,-48,-41,-7,-31,-61
18,83,65,-50.5,-23.5,74,-34,-42,-37,-11,-21,-58
6,77,71,-41.5,-32.5,74,-24,-36,-33,-19,-11,-53
-6,71,77,-32.5,-41.5,74,-16,-31,-29,-27,-6,-47
-14,67,81,-26.5,-47.5,74,-11,-29,-27,-31,-8,-43
-15,67,82,-26,-48.5,74.5,-13,-31,-29,-30,-15,-42
-8,72,80,-32,-44,76,-20,-37,-33,-26,-24,-43
4,78,74,-41,-35,76,-30,-43,-37,-17,-33,-48
18,85,67,-51.5,-24.5,76,-38,-47,-40,-9,-37,-53
27,88,61,-57.5,-17,75.5,-42,-48,-41,-5,-36,-58
26,86,60,-56,-17,73,-40,-46,-39,-5,-29,-59
19,83,64,-51,-22.5,74.5,-34,-41,-35,-10,-19,-56
6,76,70,-41,-32,73,-25,-35,-31,-18,-9,-51
-7,68,75,-30.5,-41,71.5,-16,-30,-28,-26,-5,-46
-14,67,81,-26.5,-47.5,74,-12,-29,-27,-31,-7,-42
-14,69,83,-27.5,-48.5,76,-14,-31,-29,-30,-15,-41
-8,72,80,-32,-44,76,-20,-37,-32,-25,-25,-43
4,78,74,-41,-35,76,-29,-42,-36,-16,-35,-47
18,84,66,-51,-24,75,-36,-46,-39,-8,-39,-52
26,87,61,-56.5,-17.5,74,-40,-48,-39,-4,-37,-56
25,85,60,-55,-17.5,73.5,-39,-47,-38,-5,-30,-57
16,80,64,-48,-24,72,-33,-43,-35,-10,-21,-55
5,76,71,-40.5,-33,74.5,-23,-36,-30,-18,-10,-49
-6,72,78,-33,-42,75,-14,-30,-26,-24,-4,-43
-16,66,82,-25,-49,74,-11,-29,-26,-29,-7,-40
-16,66,82,-25,-49,74,-13,-32,-28,-29,-13,-38
-7,72,79,-32.5,-43,75.5,-19,-36,-31,-23,-22,-40
5,80,75,-42.5,-35,78.5,-29,-41,-35,-14,-31,-44
19,87,68,-53,-24.5,78.5,-37,-46,-37,-6,-35,-49
28,91,63,-59.5,-17.5,77,-41,-47,-37,-2,-34,-53
27,89,62,-58,-17.5,76.5,-39,-45,-36,-3,-27,-54
19,84,65,-51.5,-23,75.5,-33,-41,-33,-8,-18,-52
5,77,72,-41,-33.5,75.5,-25,-36,-29,-17,-8,-47
-8,71,79,-31.5,-43.5,75,-16,-31,-25,-24,-3,-41
-15,68,83,-26.5,-49,75.5,-11,-29,-24,-27,-3,-37
-14,69,83,-27.5,-48.5,76,-13,-30,-25,-27,-10,-35
-8,72,80,-32,-44,76,-20,-35,-29,-22,-20,-38
3,78,75,-40.5,-36,77.5,-29,-41,-33,-15,-30,-42
16,83,67,-49.5,-25.5,75,-37,-45,-37,-7,-34,-47
27,88,61,-57.5,-17,75.5,-40,-46,-37,-2,-32,-51
28,88,60,-58,-16,74,-39,-44,-36,-3,-25,-52
19,82,63,-50.5,-22,73.5,-33,-40,-33,-9,-16,-51
4,75,71,-39.5,-33.5,73,-23,-34,-29,-18,-8,-46
-8,70,78,-31,-43,74,-15,-29,-25,-24,-3,-41
-17,66,83,-24.5,-50,74.5,-11,-28,-24,-29,-5,-37
-16,65,81,-24.5,-48.5,73,-12,-30,-27,-30,-13,-36
-9,68,77,-29.5,-43,72.5,-18,-34,-30,-25,-23,-37
2,74,72,-38,-35,73,-27,-39,-34,-17,-33,-42
16,81,65,-48.5,-24.5,73,-36,-46,-38,-10,-38,-48
26,86,60,-56,-17,73,-40,-48,-40,-5,-36,-52
26,85,59,-55.5,-16.5,72,-38,-46,-37,-3,-28,-52
17,81,64,-49,-23.5,73.5,-31,-41,-33,-6,-17,-49
4,75,71,-39.5,-33.5,73,-23,-36,-30,-12,-6,-43
-7,69,76,-31,-41.5,72.5,-15,-31,-29,-21,-1,-37
-16,64,80,-24,-48,72,-10,-29,-30,-28,-4,-33
-18,63,81,-22.5,-49.5,72,-12,-32,-35,-30,-13,-32
-9,67,76,-29,-42.5,71.5,-17,-37,-40,-29,-25,-35
3,71,68,-37,-32.5,70.5,-25,-42,-44,-24,-38,-41
15,73,58,-44,-21.5,66.5,-32,-45,-47,-18,-44,-47
24,77,53,-50.5,-14.5,65,-36,-47,-50,-16,-43,-50
23,76,53,-49.5,-15,65.5,-33,-45,-50,-19,-36,-51
16,70,54,-43,-19,62,-25,-40,-48,-26,-26,-49
4,62,58,-33,-27,60,-16,-33,-46,-36,-16,-43
-7,57,64,-25,-35.5,60.5,-7,-28,-43,-44,-12,-37
-17,51,68,-17,-42.5,59.5,-2,-26,-43,-51,-15,-34
-18,46,64,-14,-41,55,-2,-26,-46,-53,-23,-33
-9,50,59,-20.5,-34,54.5,-9,-32,-53,-53,-33,-35
3,58,55,-30.5,-26,57.5,-21,-40,-62,-49,-43,-38
19,67,48,-43,-14.5,58.5,-29,-46,-68,-43,-44,-40
30,70,40,-50,-5,55,-35,-48,-71,-39,-39,-42
32,69,37,-50.5,-2.5,53,-37,-49,-74,-42,-28,-40
26,63,37,-44.5,-5.5,50,-34,-47,-75,-51,-16,-36
14,56,42,-35,-14,49,-26,-42,-75,-63,-5,-29
2,45,43,-23.5,-20.5,44,-16,-37,-74,-78,-5,-24
-7,24,31,-8.5,-19,27.5,-4,-25,-66,-82,-11,-25
-9,1,10,4,-9.5,5.5,5,-14,-54,-77,-25,-32
0,-14,-14,7,7,-14,9,-7,-46,-74,-47,-43
13,-30,-43,8.5,28,-36.5,10,0,-37,-66,-70,-58
27,-47,-74,10,50.5,-60.5,14,8,-28,-59,-88,-74
35,-60,-95,12.5,65,-77.5,16,12,-27,-62,-99,-88
34,-73,-107,19.5,70.5,-90,19,15,-27,-69,-99,-94
25,-89,-114,32,69.5,-101.5,31,25,-18,-71,-91,-96
11,-107,-118,48,64.5,-112.5,46,37,-7,-74,-82,-94
-1,-122,-121,61.5,60,-122.5,58,47,1,-77,-78,-92
-9,-137,-128,73,59.5,-133.5,68,54,4,-84,-85,-94
-10,-145,-135,77.5,62.5,-140,72,56,0,-93,-103,-100
-4,-145,-141,74.5,68.5,-143,69,54,0,-94,-121,-107
9,-138,-147,64.5,78,-142.5,61,51,-1,-84,-132,-113
22,-127,-149,52.5,85.5,-138,53,46,-2,-74,-135,-120
29,-119,-148,45,88.5,-133.5,49,46,0,-67,-133,-125
29,-117,-146,44,87.5,-131.5,51,52,10,-62,-124,-126
21,-120,-141,49.5,81,-130.5,61,62,26,-59,-113,-125
8,-127,-135,59.5,71.5,-131,73,73,40,-60,-101,-120
-4,-135,-131,69.5,63.5,-133,83,84,54,-61,-95,-116
-13,-141,-128,77,57.5,-135.5,91,92,67,-62,-98,-115
-14,-135,-121,74.5,53.5,-128,90,93,77,-55,-106,-115
-4,-123,-119,63.5,57.5,-121,82,93,91,-40,-113,-117
10,-113,-123,51.5,66.5,-118,76,95,106,-26,-123,-123
22,-105,-127,41.5,74.5,-116,70,99,120,-13,-126,-130
28,-99,-127,35.5,77.5,-113,68,107,137,-3,-122,-133
28,-94,-122,33,75,-108,77,123,160,3,-111,-132
21,-93,-114,36,67.5,-103.5,88,134,173,3,-99,-129
6,-93,-99,43.5,52.5,-96,97,137,177,0,-86,-123
-9,-92,-83,50.5,37,-88.5,108,141,175,-8,-79,-117
-22,-92,-70,57,24,-81,118,141,153,-24,-83,-114
-26,-89,-63,57.5,18.5,-76,123,137,121,-38,-95,-115
-19,-80,-61,49.5,21,-71.5,121,131,93,-43,-105,-115
-8,-68,-60,38,26,-64,114,122,67,-42,-114,-118
0,-57,-57,28.5,28.5,-57,110,115,50,-41,-119,-123
4,-47,-51,21.5,27.5,-49,107,106,38,-42,-118,-124
3,-39,-42,18,22.5,-40.5,105,98,27,-46,-108,-122
-4,-33,-29,18.5,12.5,-31,105,93,21,-52,-93,-115
-16,-32,-16,24,0,-24,106,90,15,-59,-78,-104
-29,-32,-3,30.5,-13,-18.5,105,87,9,-65,-67,-93
-36,-23,13,29.5,-25.5,-5,103,82,8,-64,-62,-83
-33,-5,28,19,-31.5,11.5,95,74,9,-55,-60,-73
-23,10,33,6.5,-28,21.5,80,62,7,-42,-61,-68
-8,25,33,-8.5,-20.5,29,61,47,0,-29,-65,-68
5,40,35,-22.5,-15,38.5,44,33,-4,-18,-64,-69
14,49,35,-31.5,-10.5,42,31,23,-7,-9,-57,-68
16,52,36,-34,-10,44,24,17,-6,-5,-45,-66
9,53,44,-31,-17.5,49.5,22,15,-2,-6,-32,-60
-2,52,54,-25,-28,53,23,15,2,-11,-19,-53
-15,50,65,-17.5,-40,57.5,24,14,6,-15,-11,-45
-23,52,75,-14.5,-49,63.5,22,9,6,-16,-9,-38
-20,57,77,-18.5,-48.5,67,13,0,3,-15,-14,-35
-11,63,74,-26,-42.5,68.5,1,-10,-2,-10,-24,-37
3,72,69,-37.5,-33,71.5,-11,-19,-7,-1,-32,-41
16,80,64,-48,-24,72,-21,-26,-11,6,-35,-45
23,82,59,-52.5,-18,71.5,-28,-31,-14,10,-34,-49
24,83,59,-53.5,-17.5,71,-28,-31,-13,10,-25,-49
17,80,63,-48.5,-23,72.5,-23,-28,-10,6,-14,-46
3,75,72,-39,-34.5,74.5,-15,-23,-5,0,-3,-40
-9,69,78,-30,-43.5,73.5,-8,-19,-3,-7,1,-34
-17,66,83,-24.5,-50,74.5,-5,-19,-2,-11,0,-29
-18,67,85,-24.5,-51.5,76,-8,-21,-4,-10,-6,-28
-10,71,81,-30.5,-45.5,76,-15,-27,-8,-5,-16,-31
2,78,76,-40,-37,77,-25,-35,-13,1,-27,-36
16,85,69,-50.5,-26.5,77,-34,-40,-17,9,-31,-41
26,90,64,-58,-19,77,-39,-41,-18,13,-29,-45
25,89,64,-57,-19.5,77.5,-37,-40,-16,13,-22,-46
16,83,67,-49.5,-25.5,75,-30,-35,-13,8,-13,-43
2,76,74,-39,-36,75,-22,-30,-9,0,-3,-38
-9,71,80,-31,-44.5,75.5,-14,-26,-6,-7,0,-33
-17,68,85,-25.5,-51,76.5,-10,-24,-5,-11,0,-29
-18,69,87,-25.5,-52.5,78,-12,-26,-6,-10,-6,-27
-10,73,83,-31.5,-46.5,78,-19,-31,-10,-5,-16,-29
2,79,77,-40.5,-37.5,78,-29,-38,-15,2,-26,-35
15,86,71,-50.5,-28,79.5,-38,-44,-19,9,-31,-40
24,90,66,-57,-21,78,-41,-45,-19,14,-29,-44
26,91,65,-58.5,-19.5,78,-39,-42,-17,14,-22,-44
19,87,68,-53,-24.5,78.5,-33,-38,-13,9,-12,-43
4,80,76,-42,-36,78,-24,-31,-8,1,-2,-38
-9,73,82,-32,-45.5,77.5,-16,-27,-5,-5,2,-33
-17,69,86,-26,-51.5,77.5,-12,-25,-4,-9,0,-29
-17,70,87,-26.5,-52,78.5,-13,-27,-5,-8,-6,-27
-9,74,83,-32.5,-46,78.5,-20,-32,-9,-3,-15,-29
3,81,78,-42,-37.5,80.5,-30,-38,-14,3,-26,-35
16,87,71,-51.5,-27.5,79,-38,-43,-17,10,-31,-40
25,91,66,-58,-20.5,79.5,-42,-45,-17,15,-29,-44
25,90,65,-57.5,-20,78.5,-41,-42,-16,15,-21,-45
16,85,69,-50.5,-26.5,77,-34,-37,-12,10,-11,-43
3,79,76,-41,-36.5,78.5,-25,-31,-7,2,-2,-39
-10,73,83,-31.5,-46.5,78,-17,-27,-4,-6,1,-33
-18,69,87,-25.5,-52.5,78,-13,-26,-4,-11,0,-30
-18,69,87,-25.5,-52.5,78,-16,-28,-5,-12,-7,-29
-12,74,86,-31,-49,80,-23,-33,-8,-7,-17,-32
0,80,80,-40,-40,80,-32,-39,-13,1,-27,-37
14,86,72,-50,-29,79,-41,-44,-16,6,-33,-42
23,90,67,-56.5,-22,79.5,-45,-46,-17,9,-31,-46
25,91,66,-58,-20.5,79.5,-43,-44,-15,8,-23,-47
16,87,71,-51.5,-27.5,79,-36,-39,-11,3,-13,-44
3,80,77,-41.5,-37,79.5,-26,-33,-7,-4,-3,-39
-9,74,83,-32.5,-46,78.5,-19,-28,-3,-12,0,-34
-17,71,88,-27,-52.5,79.5,-15,-27,-3,-17,-1,-31
-16,73,89,-28.5,-52.5,81,-17,-29,-5,-16,-9,-31
-10,78,88,-34,-49,83,-23,-33,-8,-10,-19,-32
2,85,83,-43.5,-40.5,84,-33,-39,-12,-2,-28,-37
15,90,75,-52.5,-30,83.5,-42,-44,-15,4,-33,-42
24,93,69,-58.5,-22.5,81,-45,-45,-15,8,-32,-46
26,93,67,-59.5,-20.5,80,-42,-43,-13,9,-24,-46
19,88,69,-53.5,-25,79.5,-36,-39,-10,4,-15,-44
4,80,76,-42,-36,78,-27,-33,-6,-3,-6,-40
-9,73,82,-32,-45.5,77.5,-19,-27,-1,-9,-1,-34
-17,70,87,-26.5,-52,78.5,-14,-25,0,-13,-2,-30
-17,70,87,-26.5,-52,78.5,-16,-28,-3,-13,-9,-30
-9,76,85,-33.5,-47,80.5,-22,-33,-6,-8,-18,-32
4,83,79,-43.5,-37.5,81,-32,-39,-10,0,-28,-36
15,90,75,-52.5,-30,83.5,-40,-44,-13,7,-32,-42
23,93,70,-58,-23.5,82.5,-44,-46,-14,11,-30,-45
23,92,69,-57.5,-23,81.5,-43,-44,-13,10,-24,-47
15,86,71,-50.5,-28,79.5,-36,-39,-10,4,-15,-46
2,80,78,-41,-38,79,-27,-33,-6,-3,-6,-41
-9,75,84,-33,-46.5,79.5,-18,-27,-2,-10,-1,-35
-18,72,90,-27,-54,81,-14,-25,-1,-14,-2,-30
-18,73,91,-27.5,-54.5,82,-15,-28,-2,-14,-9,-29
-12,76,88,-32,-50,82,-22,-32,-6,-8,-19,-32
0,83,83,-41.5,-41.5,83,-31,-39,-10,0,-29,-36
14,90,76,-52,-31,83,-40,-45,-14,6,-34,-42
22,94,72,-58,-25,83,-44,-46,-15,9,-33,-46
21,90,69,-55.5,-24,80.5,-42,-44,-13,9,-25,-48
16,88,72,-52,-28,80,-34,-38,-8,5,-14,-44
3,83,80,-43,-38.5,82.5,-25,-32,-3,-2,-4,-39
-11,75,86,-32,-48.5,80.5,-17,-28,-1,-11,0,-33
-19,72,91,-26.5,-55,81.5,-13,-25,0,-15,0,-29
-20,72,92,-26,-56,82,-14,-27,-1,-14,-8,-28
-12,77,89,-32.5,-50.5,83,-21,-32,-5,-9,-20,-31
2,85,83,-43.5,-40.5,84,-30,-38,-9,-1,-30,-36
14,91,77,-52.5,-31.5,84,-37,-42,-12,5,-34,-41
21,94,73,-57.5,-26,84.5,-41,-44,-14,9,-33,-45
22,92,70,-57,-24,81,-39,-42,-12,7,-27,-46
15,87,72,-51,-28.5,80.5,-34,-38,-9,2,-17,-44
2,81,79,-41.5,-38.5,80,-24,-32,-4,-5,-7,-39
-10,77,87,-33.5,-48.5,82,-15,-26,-1,-12,-2,-33
-18,74,92,-28,-55,83,-11,-25,0,-17,-3,-30
-19,74,93,-27.5,-56,83.5,-13,-27,-2,-17,-12,-30
-10,79,89,-34.5,-49.5,84,-19,-31,-5,-12,-21,-31
3,85,82,-44,-39.5,84.5,-28,-37,-9,-4,-30,-36
14,91,77,-52.5,-31.5,84,-36,-42,-12,2,-36,-41
22,94,72,-58,-25,83,-39,-43,-12,6,-34,-45
23,94,71,-58.5,-24,83.5,-38,-41,-11,5,-27,-46
16,91,75,-53.5,-29.5,83,-31,-36,-7,0,-17,-44
2,84,82,-43,-40,83,-21,-30,-2,-7,-7,-38
-11,77,88,-33,-49.5,82.5,-13,-25,0,-16,-3,-33
-20,72,92,-26,-56,82,-9,-24,0,-20,-5,-30
-21,72,93,-25.5,-57,82.5,-12,-26,-1,-21,-13,-29
-14,75,89,-30.5,-51.5,82,-19,-31,-5,-16,-23,-33
0,83,83,-41.5,-41.5,83,-28,-37,-9,-8,-33,-37
14,92,78,-53,-32,85,-35,-41,-11,-1,-37,-41
22,96,74,-59,-26,85,-39,-42,-12,3,-35,-45
22,95,73,-58.5,-25.5,84,-37,-40,-10,2,-28,-46
14,90,76,-52,-31,83,-31,-35,-7,-4,-18,-44
0,83,83,-41.5,-41.5,83,-21,-29,-2,-12,-10,-40
-12,77,89,-32.5,-50.5,83,-13,-24,0,-19,-6,-34
-19,74,93,-27.5,-56,83.5,-9,-22,1,-24,-7,-30
-20,74,94,-27,-57,84,-10,-25,0,-23,-15,-30
-12,78,90,-33,-51,84,-17,-29,-4,-18,-26,-32
0,84,84,-42,-42,84,-27,-35,-8,-11,-37,-37
13,90,77,-51.5,-32,84.5,-35,-40,-12,-5,-41,-43
22,95,73,-58.5,-25.5,84,-38,-42,-13,-1,-40,-47
22,94,72,-58,-25,83,-36,-40,-11,-2,-34,-48
14,90,76,-52,-31,83,-30,-35,-8,-8,-24,-45
1,83,82,-42,-40.5,83.5,-20,-28,-3,-16,-14,-40
-12,75,87,-31.5,-49.5,81,-12,-23,0,-24,-10,-35
-22,71,93,-24.5,-57.5,82,-8,-22,0,-29,-11,-31
-21,73,94,-26,-57.5,83.5,-10,-25,-2,-30,-20,-30
-12,78,90,-33,-51,84,-17,-30,-6,-26,-30,-33
0,85,85,-42.5,-42.5,85,-26,-36,-11,-18,-40,-38
14,92,78,-53,-32,85,-33,-40,-14,-10,-44,-44
23,95,72,-59,-24.5,84.5,-37,-41,-15,-7,-42,-47
22,93,71,-57.5,-24.5,82,-35,-39,-14,-9,-34,-48
14,87,73,-50.5,-29.5,80,-28,-34,-10,-14,-24,-45
1,81,80,-41,-39.5,81.5,-18,-29,-7,-23,-14,-40
-12,75,87,-31.5,-49.5,81,-10,-24,-4,-31,-10,-35
-21,72,93,-25.5,-57,82.5,-6,-23,-3,-36,-12,-31
-20,73,93,-26.5,-56.5,83,-8,-25,-6,-37,-19,-30
-13,76,89,-31.5,-51,82.5,-14,-30,-10,-32,-30,-33
0,83,83,-41.5,-41.5,83,-24,-37,-15,-24,-40,-38
14,90,76,-52,-31,83,-32,-41,-19,-17,-45,-43
21,93,72,-57,-25.5,83.5,-36,-44,-20,-14,-43,-48
21,91,70,-56,-24.5,81.5,-35,-42,-19,-15,-36,-49
13,86,73,-49.5,-30,80.5,-28,-37,-16,-21,-25,-46
0,79,79,-39.5,-39.5,79,-18,-30,-12,-29,-15,-41
-12,73,85,-30.5,-48.5,79,-11,-26,-9,-36,-10,-36
-20,69,89,-24.5,-54.5,79,-7,-26,-9,-41,-12,-32
-20,70,90,-25,-55,80,-8,-28,-11,-41,-20,-31
-12,74,86,-31,-49,80,-15,-33,-15,-37,-30,-33
1,80,79,-40.5,-39,80.5,-25,-39,-21,-29,-40,-38
13,85,72,-49,-29.5,79.5,-34,-44,-25,-22,-45,-44
23,89,66,-56,-21.5,78.5,-37,-45,-26,-17,-43,-48
24,89,65,-56.5,-20.5,77,-35,-43,-24,-18,-35,-49
13,83,70,-48,-28.5,77.5,-30,-39,-22,-24,-25,-47
0,75,75,-37.5,-37.5,75,-21,-33,-18,-32,-15,-42
-11,69,80,-29,-45.5,74.5,-13,-28,-15,-39,-10,-36
-18,65,83,-23.5,-50.5,74,-8,-26,-15,-43,-11,-32
-17,67,84,-25,-50.5,75.5,-8,-28,-16,-42,-18,-30
-8,72,80,-32,-44,76,-15,-33,-20,-36,-27,-32
4,80,76,-42,-36,78,-26,-39,-26,-28,-37,-38
16,85,69,-50.5,-26.5,77,-35,-45,-30,-20,-42,-44
25,87,62,-56,-18.5,75.5,-39,-48,-32,-16,-40,-48
25,86,61,-55.5,-18,74.5,-37,-46,-31,-17,-31,-49
17,81,64,-49,-23.5,73.5,-31,-40,-28,-21,-19,-46
3,74,71,-38.5,-34,73.5,-21,-34,-23,-28,-8,-41
-10,67,77,-28.5,-43.5,72,-13,-29,-20,-35,-3,-35
-19,64,83,-22.5,-51,73.5,-9,-28,-20,-38,-4,-31
-18,65,83,-23.5,-50.5,74,-11,-30,-22,-37,-11,-30
-8,70,78,-31,-43,74,-18,-36,-26,-32,-22,-33
4,76,72,-40,-34,74,-28,-42,-31,-23,-31,-38
19,83,64,-51,-22.5,74.5,-36,-47,-34,-14,-35,-43
27,86,59,-56.5,-16,73.5,-39,-47,-34,-9,-32,-47
25,85,60,-55,-17.5,73.5,-37,-45,-33,-9,-25,-48
18,81,63,-49.5,-22.5,72,-31,-41,-29,-13,-14,-46
5,73,68,-39,-31.5,71.5,-22,-35,-25,-21,-3,-41
-9,65,74,-28,-41.5,69.5,-13,-29,-21,-28,1,-36
-18,61,79,-21.5,-48.5,70,-9,-28,-21,-32,0,-32
-18,61,79,-21.5,-48.5,70,-11,-31,-22,-32,-8,-32
-9,67,76,-29,-42.5,71.5,-18,-36,-25,-25,-17,-34
5,77,72,-41,-33.5,75.5,-27,-41,-29,-16,-26,-38
20,83,63,-51.5,-21.5,73,-35,-45,-32,-8,-31,-43
27,85,58,-56,-15.5,72.5,-39,-47,-33,-4,-29,-48
26,83,57,-54.5,-15.5,70,-36,-44,-31,-4,-22,-50
17,79,62,-48,-22.5,71.5,-30,-39,-27,-9,-12,-48
3,72,69,-37.5,-33,71.5,-22,-34,-23,-17,-2,-43
-9,64,73,-27.5,-41,68.5,-13,-29,-19,-24,1,-38
-17,61,78,-22,-47.5,69.5,-9,-27,-18,-28,0,-34
-17,63,80,-23,-48.5,71.5,-10,-29,-20,-27,-6,-32
-8,69,77,-30.5,-42.5,73,-17,-33,-22,-20,-16,-34
6,77,71,-41.5,-32.5,74,-26,-39,-26,-11,-26,-39
19,82,63,-50.5,-22,73.5,-34,-43,-30,-4,-30,-45
26,85,59,-55.5,-16.5,72,-38,-45,-30,0,-29,-49
27,85,58,-56,-15.5,72.5,-35,-42,-27,0,-20,-49
18,80,62,-49,-22,71,-29,-37,-23,-4,-10,-47
4,71,67,-37.5,-31.5,69,-20,-31,-20,-13,-1,-43
-9,64,73,-27.5,-41,68.5,-12,-27,-16,-20,1,-38
-18,60,78,-21,-48,69,-8,-25,-15,-25,0,-34
-16,62,78,-23,-47,70,-9,-27,-17,-24,-6,-34
-7,70,77,-31.5,-42,73.5,-15,-32,-20,-18,-16,-35
6,77,71,-41.5,-32.5,74,-25,-37,-24,-9,-26,-40
17,81,64,-49,-23.5,73.5,-33,-42,-27,-1,-30,-45
24,82,58,-53,-17,70,-37,-43,-28,1,-29,-50
24,81,57,-52.5,-16.5,69,-35,-41,-26,1,-21,-51
18,78,60,-48,-21,69,-27,-36,-21,-3,-11,-49
4,71,67,-37.5,-31.5,69,-17,-30,-16,-11,0,-44
-9,65,74,-28,-41.5,69.5,-10,-24,-13,-18,4,-38
-18,62,80,-22,-49,71,-5,-23,-12,-22,3,-34
-18,61,79,-21.5,-48.5,70,-7,-25,-14,-22,-4,-34
-11,65,76,-27,-43.5,70.5,-14,-31,-18,-17,-16,-37
4,74,70,-39,-33,72,-23,-36,-21,-8,-25,-41
18,81,63,-49.5,-22.5,72,-30,-40,-24,0,-28,-46
26,84,58,-55,-16,71,-34,-41,-24,4,-27,-50
26,83,57,-54.5,-15.5,70,-32,-39,-22,3,-20,-51
18,78,60,-48,-21,69,-25,-35,-19,-1,-9,-49
4,71,67,-37.5,-31.5,69,-15,-28,-14,-10,0,-44
-9,64,73,-27.5,-41,68.5,-8,-24,-11,-17,4,-39
-17,61,78,-22,-47.5,69.5,-4,-22,-10,-21,3,-35
-16,63,79,-23.5,-47.5,71,-6,-24,-11,-20,-4,-34
-7,68,75,-30.5,-41,71.5,-12,-29,-15,-15,-14,-36
6,75,69,-40.5,-31.5,72,-21,-35,-18,-6,-24,-41
18,80,62,-49,-22,71,-29,-39,-21,1,-29,-47
25,82,57,-53.5,-16,70.5,-34,-41,-23,4,-27,-52
25,82,57,-53.5,-16,70.5,-32,-39,-20,4,-19,-54
18,79,61,-48.5,-21.5,70,-24,-33,-16,1,-9,-51
4,71,67,-37.5,-31.5,69,-14,-27,-11,-7,1,-46
-9,65,74,-28,-41.5,69.5,-6,-22,-9,-15,5,-40
-18,62,80,-22,-49,71,-2,-21,-8,-20,3,-36
-18,62,80,-22,-49,71,-4,-23,-10,-19,-4,-35
-10,67,77,-28.5,-43.5,72,-10,-28,-13,-14,-15,-38
3,74,71,-38.5,-34,73.5,-20,-34,-17,-5,-25,-43
16,80,64,-48,-24,72,-28,-38,-20,2,-30,-48
24,82,58,-53,-17,70,-32,-39,-21,6,-30,-52
24,80,56,-52,-16,68,-29,-37,-18,6,-23,-53
16,76,60,-46,-22,68,-22,-31,-14,1,-11,-50
2,69,67,-35.5,-32.5,68,-12,-25,-9,-6,-1,-45
-9,63,72,-27,-40.5,67.5,-3,-20,-6,-14,3,-40
-16,60,76,-22,-46,68,0,-18,-5,-18,2,-37
-18,60,78,-21,-48,69,-2,-21,-7,-18,-5,-36
-12,64,76,-26,-44,70,-9,-26,-10,-12,-15,-38
2,72,70,-37,-34,71,-18,-32,-14,-4,-25,-44
17,79,62,-48,-22.5,71.5,-27,-36,-17,3,-29,-49
26,83,57,-54.5,-15.5,70,-30,-37,-17,7,-27,-53
25,82,57,-53.5,-16,70.5,-29,-35,-16,6,-20,-55
16,77,61,-46.5,-22.5,69,-22,-31,-13,0,-11,-53
2,69,67,-35.5,-32.5,68,-13,-24,-8,-9,-1,-48
-9,63,72,-27,-40.5,67.5,-4,-19,-4,-16,3,-42
-17,60,77,-21.5,-47,68.5,0,-18,-3,-20,2,-38
-18,60,78,-21,-48,69,-1,-20,-5,-19,-5,-37
-9,66,75,-28.5,-42,70.5,-8,-24,-8,-13,-14,-38
5,73,68,-39,-31.5,71.5,-17,-30,-12,-5,-25,-44
18,79,61,-48.5,-21.5,70,-26,-35,-16,1,-31,-50
25,81,56,-53,-15.5,69.5,-31,-37,-17,5,-32,-55
25,80,55,-52.5,-15,68.5,-29,-35,-16,5,-25,-57
16,76,60,-46,-22,68,-22,-29,-11,0,-14,-55
0,68,68,-34,-34,68,-11,-22,-6,-7,-2,-49
-13,61,74,-24,-43.5,67.5,-2,-18,-2,-16,3,-44
-20,59,79,-19.5,-49.5,69,2,-15,-1,-21,2,-38
-20,60,80,-20,-50,70,1,-17,-2,-21,-5,-36
-13,62,75,-24.5,-44,68.5,-6,-23,-7,-17,-18,-39
0,68,68,-34,-34,68,-17,-30,-12,-9,-30,-46
16,76,60,-46,-22,68,-25,-35,-15,0,-35,-51
25,79,54,-52,-14.5,67.5,-30,-37,-17,3,-34,-56
24,76,52,-50,-14,64,-29,-35,-16,2,-27,-60
15,71,56,-43,-20.5,64.5,-21,-29,-11,-2,-15,-57
0,66,66,-33,-33,66,-11,-22,-6,-10,-3,-51
-11,60,71,-24.5,-41,65.5,-1,-17,-3,-18,2,-45
-19,57,76,-19,-47.5,66.5,3,-16,-2,-23,1,-40
-20,59,79,-19.5,-49.5,69,1,-18,-3,-23,-6,-38
-12,62,74,-25,-43,68,-5,-23,-7,-17,-17,-40
0,66,66,-33,-33,66,-16,-30,-13,-8,-29,-45
16,73,57,-44.5,-20.5,65,-25,-35,-17,0,-34,-52
25,77,52,-51,-13.5,65.5,-29,-37,-18,4,-34,-57
25,76,51,-50.5,-13,64.5,-28,-35,-16,4,-27,-59
17,73,56,-45,-19.5,65.5,-20,-29,-12,0,-15,-56
3,67,64,-35,-30.5,66.5,-9,-23,-7,-9,-3,-50
-11,60,71,-24.5,-41,65.5,-1,-18,-4,-17,1,-44
-20,57,77,-18.5,-48.5,67,2,-17,-3,-22,0,-39
-19,58,77,-19.5,-48,67.5,0,-20,-5,-22,-7,-37
-11,62,73,-25.5,-42,67.5,-5,-25,-10,-17,-18,-40
1,68,67,-34.5,-33,68.5,-16,-32,-15,-9,-30,-46
15,74,59,-44.5,-22,67.5,-26,-38,-20,-2,-36,-53
25,79,54,-52,-14.5,67.5,-31,-39,-20,3,-34,-57
26,78,52,-52,-13,65,-28,-36,-18,4,-26,-58
17,71,54,-44,-18.5,63.5,-22,-31,-15,-1,-15,-56
2,64,62,-33,-30,63,-12,-25,-10,-10,-3,-51
-11,58,69,-23.5,-40,63.5,-2,-20,-6,-19,2,-44
-20,55,75,-17.5,-47.5,65,2,-19,-5,-24,0,-40
-19,57,76,-19,-47.5,66.5,0,-21,-7,-24,-6,-38
-11,62,73,-25.5,-42,67.5,-6,-26,-11,-18,-17,-40
2,67,65,-34.5,-31.5,66,-18,-33,-17,-9,-28,-46
15,72,57,-43.5,-21,65.5,-27,-40,-22,-3,-34,-53
26,77,51,-51.5,-12.5,64,-32,-41,-23,2,-33,-58
25,77,52,-51,-13.5,65.5,-30,-37,-21,1,-24,-58
16,72,56,-44,-20,64,-23,-33,-17,-5,-13,-56
4,65,61,-34.5,-28.5,63,-13,-27,-13,-14,-2,-51
-11,59,70,-24,-40.5,64.5,-4,-22,-9,-23,3,-44
-19,56,75,-18.5,-47,65.5,0,-20,-8,-28,1,-39
-18,58,76,-20,-47,67,-1,-22,-10,-28,-7,-38
-12,63,75,-25.5,-43.5,69,-8,-28,-14,-22,-18,-40
1,70,69,-35.5,-34,70.5,-19,-34,-19,-13,-29,-46
17,76,59,-46.5,-21,68.5,-28,-39,-23,-4,-35,-52
26,78,52,-52,-13,65,-32,-40,-25,0,-34,-56
25,77,52,-51,-13.5,65.5,-30,-39,-23,-1,-26,-58
17,74,57,-45.5,-20,66.5,-24,-33,-19,-6,-14,-56
3,66,63,-34.5,-30,65.5,-13,-27,-14,-14,-3,-50
-10,61,71,-25.5,-40.5,66,-5,-22,-10,-22,2,-44
-19,57,76,-19,-47.5,66.5,-1,-22,-10,-28,0,-40
-20,56,76,-18,-48,66,-4,-25,-13,-28,-8,-40
-11,62,73,-25.5,-42,67.5,-11,-30,-17,-22,-19,-42
3,69,66,-36,-31.5,68.5,-20,-36,-22,-12,-29,-47
15,75,60,-45,-22.5,68.5,-29,-42,-25,-5,-35,-53
25,80,55,-52.5,-15,68.5,-33,-43,-26,0,-33,-56
28,80,52,-54,-12,66,-30,-41,-24,-1,-24,-57
18,73,55,-45.5,-18.5,64,-24,-36,-21,-7,-14,-55
3,66,63,-34.5,-30,65.5,-14,-29,-16,-15,-3,-50
-10,61,71,-25.5,-40.5,66,-6,-24,-12,-22,1,-43
-17,58,75,-20.5,-46,66.5,-2,-23,-12,-26,0,-39
-17,59,76,-21,-46.5,67.5,-5,-26,-15,-26,-8,-39
-10,63,73,-26.5,-41.5,68,-12,-32,-19,-21,-19,-42
2,70,68,-36,-33,69,-21,-37,-23,-12,-29,-46
17,77,60,-47,-21.5,69.5,-29,-41,-26,-3,-33,-51
26,80,54,-53,-14,67,-34,-44,-27,0,-32,-56
25,80,55,-52.5,-15,68.5,-32,-42,-25,0,-24,-57
16,74,58,-45,-21,66,-24,-36,-21,-5,-12,-54
1,66,65,-33.5,-32,66.5,-15,-30,-17,-14,-2,-49
-11,60,71,-24.5,-41,65.5,-6,-25,-14,-21,2,-43
-19,56,75,-18.5,-47,65.5,-2,-24,-13,-25,0,-39
-17,58,75,-20.5,-46,66.5,-4,-26,-15,-24,-7,-38
-9,63,72,-27,-40.5,67.5,-11,-32,-19,-19,-18,-40
4,70,66,-37,-31,68,-22,-38,-24,-11,-28,-46
19,78,59,-48.5,-20,69.5,-30,-44,-27,-3,-31,-52
26,81,55,-53.5,-14.5,68,-34,-45,-28,0,-30,-55
25,79,54,-52,-14.5,67.5,-32,-42,-26,0,-22,-55
15,72,57,-43.5,-21,65.5,-25,-37,-22,-6,-11,-53
2,64,62,-33,-30,63,-16,-31,-18,-15,-1,-48
-10,59,69,-24.5,-39.5,64,-8,-26,-14,-22,3,-42
-17,57,74,-20,-45.5,65.5,-4,-24,-13,-26,1,-38
-18,57,75,-19.5,-46.5,66,-6,-27,-16,-25,-5,-38
-12,62,74,-25,-43,68,-13,-32,-20,-20,-15,-40
1,69,68,-35,-33.5,69.5,-23,-39,-24,-12,-26,-45
17,77,60,-47,-21.5,69.5,-31,-43,-28,-5,-30,-51
26,81,55,-53.5,-14.5,68,-35,-45,-29,-1,-28,-55
26,80,54,-53,-14,67,-35,-43,-27,-3,-21,-56
17,75,58,-46,-20.5,67.5,-28,-38,-24,-8,-10,-54
4,68,64,-36,-30,66,-18,-32,-19,-16,0,-49
-9,61,70,-26,-39.5,65.5,-9,-27,-16,-23,3,-43
-18,57,75,-19.5,-46.5,66,-6,-25,-15,-28,1,-39
-18,57,75,-19.5,-46.5,66,-9,-28,-18,-27,-6,-39
-11,61,72,-25,-41.5,66.5,-16,-33,-21,-21,-17,-40
1,69,68,-35,-33.5,69.5,-25,-39,-25,-12,-26,-45
17,77,60,-47,-21.5,69.5,-32,-44,-28,-5,-30,-50
26,81,55,-53.5,-14.5,68,-36,-45,-29,-1,-28,-54
26,80,54,-53,-14,67,-34,-43,-28,-2,-21,-56
17,74,57,-45.5,-20,66.5,-27,-38,-25,-8,-11,-54
1,65,64,-33,-31.5,65.5,-19,-33,-21,-17,-2,-50
-13,58,71,-22.5,-42,64.5,-10,-29,-18,-24,1,-44
-18,57,75,-19.5,-46.5,66,-5,-26,-16,-27,1,-39
-17,60,77,-21.5,-47,68.5,-7,-28,-17,-26,-4,-37
-10,64,74,-27,-42,69,-15,-33,-21,-21,-15,-39
2,69,67,-35.5,-32.5,68,-25,-40,-27,-14,-26,-45
16,77,61,-46.5,-22.5,69,-33,-44,-29,-6,-30,-51
24,80,56,-52,-16,68,-36,-46,-30,-2,-28,-55
25,80,55,-52.5,-15,68.5,-34,-43,-28,-2,-20,-55
18,77,59,-47.5,-20.5,68,-27,-38,-24,-8,-9,-53
2,69,67,-35.5,-32.5,68,-18,-32,-20,-16,0,-48
-11,61,72,-25,-41.5,66.5,-11,-28,-17,-24,3,-43
-17,57,74,-20,-45.5,65.5,-7,-26,-16,-28,2,-39
-16,58,74,-21,-45,66,-8,-28,-18,-27,-5,-37
-8,65,73,-28.5,-40.5,69,-15,-33,-21,-21,-15,-39
5,72,67,-38.5,-31,70.5,-25,-39,-26,-13,-24,-44
17,77,60,-47,-21.5,69.5,-32,-44,-29,-6,-28,-51
25,79,54,-52,-14.5,67.5,-37,-45,-30,-2,-27,-55
24,78,54,-51,-15,66,-34,-43,-28,-2,-18,-55
18,75,57,-46.5,-19.5,66,-27,-38,-24,-8,-8,-53
6,69,63,-37.5,-28.5,66,-17,-31,-20,-16,2,-47
-9,62,71,-26.5,-40,66.5,-9,-27,-16,-23,6,-42
-19,58,77,-19.5,-48,67.5,-6,-26,-16,-28,3,-38
-18,58,76,-20,-47,67,-9,-29,-19,-28,-4,-38
-10,62,72,-26,-41,67,-16,-34,-23,-22,-14,-41
3,69,66,-36,-31.5,68.5,-25,-40,-27,-13,-23,-46
17,77,60,-47,-21.5,69.5,-33,-44,-29,-6,-27,-51
26,81,55,-53.5,-14.5,68,-36,-46,-30,-1,-25,-55
26,79,53,-52.5,-13.5,66,-34,-43,-28,-2,-18,-56
17,74,57,-45.5,-20,66.5,-27,-38,-24,-7,-7,-53
4,68,64,-36,-30,66,-18,-33,-20,-16,1,-48
-10,61,71,-25.5,-40.5,66,-10,-29,-17,-23,5,-42
-18,57,75,-19.5,-46.5,66,-6,-27,-16,-27,2,-38
-16,58,74,-21,-45,66,-8,-30,-19,-27,-5,-38
-8,63,71,-27.5,-39.5,67,-16,-35,-23,-21,-16,-41
4,70,66,-37,-31,68,-25,-41,-27,-13,-26,-46
17,77,60,-47,-21.5,69.5,-33,-45,-30,-5,-30,-52
26,82,56,-54,-15,69,-37,-47,-31,-1,-27,-55
26,82,56,-54,-15,69,-35,-45,-29,-2,-19,-56
16,75,59,-45.5,-21.5,67,-27,-39,-24,-7,-9,-53
2,67,65,-34.5,-31.5,66,-17,-32,-20,-15,0,-48
-10,61,71,-25.5,-40.5,66,-12,-29,-18,-23,4,-43
-17,59,76,-21,-46.5,67.5,-9,-27,-17,-27,2,-39
-15,60,75,-22.5,-45,67.5,-9,-29,-18,-25,-3,-38
-7,64,71,-28.5,-39,67.5,-16,-34,-22,-20,-13,-40
5,70,65,-37.5,-30,68.5,-26,-41,-27,-12,-23,-46
17,76,59,-46.5,-21,68.5,-35,-46,-30,-5,-27,-52
25,79,54,-52,-14.5,67.5,-38,-47,-31,-1,-25,-55
25,79,54,-52,-14.5,67.5,-35,-44,-28,-2,-18,-56
16,74,58,-45,-21,66,-28,-40,-24,-7,-7,-53
3,67,64,-35,-30.5,66.5,-19,-33,-20,-15,2,-48
-9,60,69,-25.5,-39,64.5,-11,-28,-17,-23,5,-43
-17,57,74,-20,-45.5,65.5,-7,-27,-17,-27,2,-39
-17,58,75,-20.5,-46,66.5,-10,-30,-19,-26,-5,-38
-9,62,71,-26.5,-40,66.5,-17,-34,-22,-21,-14,-41
5,70,65,-37.5,-30,68.5,-26,-41,-27,-13,-23,-46
17,75,58,-46,-20.5,67.5,-34,-46,-30,-6,-28,-52
24,77,53,-50.5,-14.5,65,-37,-48,-31,-2,-26,-56
25,78,53,-51.5,-14,66.5,-35,-45,-29,-2,-18,-56
16,75,59,-45.5,-21.5,67,-28,-40,-25,-8,-7,-53
3,66,63,-34.5,-30,65.5,-20,-35,-21,-16,1,-49
-9,59,68,-25,-38.5,63.5,-12,-31,-19,-24,4,-45
-19,55,74,-18,-46.5,64.5,-8,-29,-18,-27,3,-41
-18,56,74,-19,-46,65,-9,-31,-20,-26,-4,-39
-9,62,71,-26.5,-40,66.5,-15,-35,-23,-20,-14,-41
4,69,65,-36.5,-30.5,67,-25,-41,-27,-12,-23,-46
19,78,59,-48.5,-20,69.5,-32,-45,-30,-4,-27,-51
27,82,55,-54.5,-14,69.5,-36,-46,-31,0,-25,-55
23,78,55,-50.5,-16,67.5,-35,-45,-29,-2,-18,-56
13,71,58,-42,-22.5,65.5,-28,-40,-26,-8,-9,-54
3,67,64,-35,-30.5,66.5,-18,-33,-21,-15,1,-48
-8,62,70,-27,-39,66,-9,-28,-17,-21,6,-42
-17,58,75,-20.5,-46,66.5,-5,-28,-17,-26,4,-39
-16,58,74,-21,-45,66,-8,-31,-19,-25,-4,-38
-7,64,71,-28.5,-39,67.5,-15,-36,-23,-19,-14,-41
5,71,66,-38,-30.5,69.5,-24,-41,-27,-11,-23,-45
17,77,60,-47,-21.5,69.5,-31,-46,-30,-4,-27,-51
25,81,56,-53,-15.5,69.5,-35,-48,-30,0,-24,-55
25,79,54,-52,-14.5,67.5,-34,-45,-29,-1,-17,-55
14,72,58,-43,-22,65,-27,-41,-26,-7,-7,-54
1,64,63,-32.5,-31,64.5,-18,-35,-22,-15,1,-49
-11,58,69,-23.5,-40,63.5,-10,-30,-18,-23,6,-44
-19,55,74,-18,-46.5,64.5,-7,-29,-18,-27,5,-40
-18,56,74,-19,-46,65,-9,-31,-20,-26,-1,-40
-8,63,71,-27.5,-39.5,67,-15,-36,-23,-20,-11,-42
6,72,66,-39,-30,69,-24,-42,-27,-11,-20,-46
18,78,60,-48,-21,69,-32,-47,-30,-4,-25,-51
26,80,54,-53,-14,67,-35,-48,-31,0,-23,-55
28,81,53,-54.5,-12.5,67,-33,-45,-28,0,-14,-55
18,75,57,-46.5,-19.5,66,-27,-40,-24,-6,-3,-53
3,67,64,-35,-30.5,66.5,-17,-34,-20,-14,5,-48
-10,61,71,-25.5,-40.5,66,-10,-30,-18,-22,8,-44
-17,58,75,-20.5,-46,66.5,-6,-29,-18,-27,7,-40
-15,59,74,-22,-44.5,66.5,-7,-30,-19,-25,0,-39
-6,64,70,-29,-38,67,-14,-35,-22,-20,-10,-41
7,72,65,-39.5,-29,69.5,-24,-41,-27,-11,-20,-46
19,78,59,-48.5,-20,69.5,-32,-46,-30,-3,-24,-52
26,80,54,-53,-14,67,-36,-47,-30,0,-22,-56
26,79,53,-52.5,-13.5,66,-33,-44,-28,0,-14,-56
17,74,57,-45.5,-20,66.5,-26,-39,-24,-5,-3,-54
3,67,64,-35,-30.5,66.5,-17,-34,-20,-14,5,-49
-8,61,69,-26.5,-38.5,65,-9,-28,-17,-22,10,-44
-17,56,73,-19.5,-45,64.5,-5,-27,-16,-25,8,-40
-17,57,74,-20,-45.5,65.5,-7,-29,-18,-24,0,-39
-8,62,70,-27,-39,66,-15,-34,-22,-19,-10,-41
5,69,64,-37,-29.5,67.5,-26,-41,-27,-11,-20,-47
19,76,57,-47.5,-19,67.5,-33,-46,-30,-4,-24,-52
27,78,51,-52.5,-12,65.5,-36,-47,-30,0,-21,-56
25,76,51,-50.5,-13,64.5,-34,-44,-29,-2,-14,-56
15,71,56,-43,-20.5,64.5,-27,-40,-25,-8,-4,-54
0,63,63,-31.5,-31.5,63,-17,-34,-21,-17,4,-50
-12,57,69,-22.5,-40.5,63,-8,-29,-18,-24,9,-44
-18,54,72,-18,-45,63,-4,-27,-17,-28,7,-40
-17,56,73,-19.5,-45,64.5,-8,-31,-19,-27,0,-40
-8,61,69,-26.5,-38.5,65,-17,-35,-23,-21,-10,-42
5,68,63,-36.5,-29,66.5,-27,-42,-28,-13,-20,-48
19,75,56,-47,-18.5,66.5,-33,-46,-30,-6,-23,-53
25,78,53,-51.5,-14,66.5,-36,-47,-31,-1,-21,-56
24,77,53,-50.5,-14.5,65,-33,-44,-29,-2,-13,-57
18,74,56,-46,-19,65,-26,-38,-24,-7,-2,-53
6,68,62,-37,-28,65,-17,-32,-19,-15,7,-48
-7,61,68,-27,-37.5,64.5,-10,-27,-16,-22,11,-43
-16,57,73,-20.5,-44.5,65,-6,-26,-16,-26,8,-40
-17,57,74,-20,-45.5,65.5,-9,-28,-18,-25,0,-39
-9,61,70,-26,-39.5,65.5,-16,-35,-23,-19,-11,-42
6,70,64,-38,-29,67,-25,-41,-27,-10,-20,-47
20,77,57,-48.5,-18.5,67,-33,-45,-29,-2,-23,-52
27,78,51,-52.5,-12,65.5,-37,-46,-31,0,-22,-57
26,77,51,-51.5,-12.5,64,-35,-44,-29,0,-14,-57
17,73,56,-45,-19.5,65.5,-28,-39,-25,-5,-3,-54
3,67,64,-35,-30.5,66.5,-18,-33,-20,-13,6,-49
-8,60,68,-26,-38,64,-10,-28,-17,-21,9,-44
-15,56,71,-20.5,-43,63.5,-7,-27,-16,-25,7,-41
-16,56,72,-20,-44,64,-9,-29,-19,-24,0,-40
-9,60,69,-25.5,-39,64.5,-16,-34,-22,-18,-10,-42
3,66,63,-34.5,-30,65.5,-25,-41,-27,-11,-20,-48
16,71,55,-43.5,-19.5,63,-33,-46,-30,-4,-24,-54
24,76,52,-50,-14,64,-36,-47,-30,0,-22,-57
23,75,52,-49,-14.5,64.5,-35,-45,-29,-1,-14,-58
14,68,54,-41,-20,61,-28,-40,-26,-8,-4,-56
1,62,61,-31.5,-30,62.5,-19,-34,-21,-15,5,-51
-10,58,68,-24,-39,63,-11,-28,-17,-22,10,-45
-17,56,73,-19.5,-45,64.5,-6,-26,-16,-25,9,-40
-15,57,72,-21,-43.5,64.5,-9,-29,-19,-24,1,-40
-6,62,68,-28,-37,65,-17,-34,-22,-19,-9,-43
6,70,64,-38,-29,67,-26,-39,-26,-9,-18,-47
17,75,58,-46,-20.5,67.5,-33,-44,-29,-2,-22,-52
25,79,54,-52,-14.5,67.5,-37,-46,-30,1,-21,-57
26,79,53,-52.5,-13.5,66,-34,-43,-27,0,-13,-57
19,75,56,-47,-18.5,66.5,-28,-38,-23,-4,-1,-54
4,68,64,-36,-30,66,-20,-33,-20,-13,7,-50
-9,62,71,-26.5,-40,66.5,-12,-29,-17,-20,11,-45
-16,59,75,-21.5,-45.5,67,-7,-26,-14,-22,10,-40
-16,59,75,-21.5,-45.5,67,-10,-29,-15,-20,3,-39
-7,64,71,-28.5,-39,67.5,-18,-35,-19,-15,-7,-42
6,73,67,-39.5,-30.5,70,-28,-41,-23,-6,-16,-46
19,80,61,-49.5,-21,71.5,-36,-45,-26,0,-21,-52
25,83,58,-54,-16.5,71.5,-39,-46,-27,3,-19,-56
24,82,58,-53,-17,70,-37,-44,-24,2,-11,-57
15,79,64,-47,-24.5,72.5,-30,-40,-21,-3,-1,-54
0,71,71,-35.5,-35.5,71,-21,-34,-17,-11,7,-50
-12,64,76,-26,-44,70,-13,-30,-14,-19,11,-45
-19,61,80,-21,-49.5,70.5,-7,-28,-13,-22,9,-40
-18,64,82,-23,-50,73,-9,-29,-13,-20,2,-38
-9,71,80,-31,-44.5,75.5,-17,-34,-16,-14,-6,-40
2,78,76,-40,-37,77,-28,-41,-21,-6,-15,-45
15,85,70,-50,-27.5,78.5,-38,-47,-24,1,-18,-51
25,92,67,-58.5,-21,80.5,-43,-48,-23,6,-16,-53
26,93,67,-59.5,-20.5,80,-42,-45,-21,5,-8,-54
15,86,71,-50.5,-28,79.5,-36,-41,-18,0,0,-52
0,76,76,-38,-38,76,-27,-36,-15,-9,9,-47
-10,72,82,-31,-46,77,-19,-32,-13,-16,13,-41
-15,70,85,-27.5,-50,77.5,-15,-31,-13,-21,11,-37
-14,70,84,-28,-49,77,-18,-33,-16,-21,3,-37
-5,75,80,-35,-42.5,77.5,-25,-38,-21,-15,-6,-39
6,81,75,-43.5,-34.5,78,-34,-44,-25,-7,-16,-45
19,86,67,-52.5,-24,77.5,-42,-48,-27,0,-21,-50
28,90,62,-59,-17,76,-44,-49,-28,4,-19,-53
28,88,60,-58,-16,74,-42,-46,-27,2,-12,-55
19,81,62,-50,-21.5,72.5,-35,-41,-23,-3,-2,-53
5,72,67,-38.5,-31,70.5,-25,-35,-18,-11,7,-48
-7,65,72,-29,-39.5,68.5,-17,-30,-16,-18,10,-42
-16,60,76,-22,-46,68,-13,-29,-15,-22,8,-39
-15,61,76,-23,-45.5,68.5,-16,-31,-17,-21,1,-38
-6,66,72,-30,-39,69,-23,-37,-22,-16,-8,-40
7,73,66,-40,-29.5,70.5,-32,-43,-27,-8,-18,-45
20,79,59,-49.5,-19.5,69,-41,-48,-30,-2,-22,-50
27,82,55,-54.5,-14,69.5,-44,-51,-32,0,-21,-54
27,80,53,-53.5,-13,67.5,-41,-48,-30,0,-14,-55
19,74,55,-46.5,-18,65.5,-35,-43,-26,-6,-3,-52
6,66,60,-36,-27,63,-25,-36,-22,-14,7,-47
-5,61,66,-28,-35.5,63.5,-17,-31,-19,-21,11,-41
-12,58,70,-23,-41,64,-15,-31,-18,-25,9,-38
-12,58,70,-23,-41,64,-17,-33,-20,-23,1,-37
-4,63,67,-29.5,-35.5,65,-24,-38,-24,-16,-7,-39
10,71,61,-40.5,-25.5,66,-34,-45,-29,-8,-16,-44
21,76,55,-48.5,-17,66.5,-44,-51,-34,-2,-20,-50
28,78,50,-53,-11,64,-47,-52,-35,0,-18,-53
29,79,50,-54,-10.5,65.5,-44,-48,-33,0,-10,-53
21,74,53,-47.5,-16,64.5,-36,-43,-29,-6,0,-50
8,64,56,-36,-24,60,-26,-36,-25,-15,9,-46
-5,54,59,-24.5,-32,56.5,-17,-32,-22,-23,12,-42
-12,52,64,-20,-38,58,-12,-30,-22,-27,9,-39
-12,54,66,-21,-39,60,-13,-32,-23,-26,2,-38
-4,58,62,-27,-33,60,-19,-36,-26,-21,-9,-42
5,62,57,-33.5,-26,60.5,-27,-42,-30,-13,-21,-49
16,67,51,-41.5,-17.5,59,-34,-46,-33,-6,-25,-56
23,70,47,-46.5,-12,59.5,-36,-47,-33,-1,-22,-60
23,70,47,-46.5,-12,59.5,-33,-44,-29,-1,-13,-60
16,66,50,-41,-17,58,-26,-38,-24,-6,-2,-57
3,60,57,-31.5,-27,59.5,-16,-31,-20,-14,7,-53
-10,54,64,-22,-37,59,-9,-27,-18,-21,10,-47
-17,50,67,-16.5,-42,58.5,-5,-26,-18,-26,8,-44
-16,49,65,-16.5,-40.5,57,-7,-29,-20,-25,0,-43
-9,52,61,-21.5,-35,56.5,-14,-34,-24,-21,-11,-46
3,59,56,-31,-26.5,58.5,-24,-40,-30,-13,-20,-51
17,65,48,-41,-15.5,57.5,-31,-45,-32,-6,-23,-56
25,66,41,-45.5,-8,54.5,-35,-46,-33,-2,-22,-61
24,65,41,-44.5,-8.5,53,-33,-44,-32,-4,-15,-62
16,61,45,-38.5,-14.5,53,-25,-39,-28,-10,-4,-60
2,54,52,-28,-25,53,-16,-32,-24,-18,4,-55
-11,45,56,-17,-33.5,50.5,-9,-28,-21,-25,8,-49
-20,42,62,-11,-41,52,-6,-28,-21,-29,6,-46
-20,43,63,-11.5,-41.5,53,-8,-30,-23,-29,-2,-45
-12,47,59,-17.5,-35.5,53,-14,-35,-27,-24,-12,-48
1,55,54,-28,-26.5,55.5,-23,-40,-31,-15,-22,-53
15,61,46,-38,-15.5,54.5,-31,-45,-34,-7,-25,-58
24,66,42,-45,-9,54,-34,-46,-34,-3,-23,-61
24,65,41,-44.5,-8.5,53,-33,-43,-32,-5,-15,-62
14,59,45,-36.5,-15.5,52,-26,-38,-28,-10,-6,-61
2,52,50,-27,-24,51,-16,-33,-24,-19,2,-56
-8,47,55,-19.5,-31.5,51,-9,-28,-21,-26,6,-51
-17,44,61,-13.5,-39,52.5,-5,-27,-20,-29,5,-46
-19,46,65,-13.5,-42,55.5,-6,-28,-21,-27,-1,-45
-11,51,62,-20,-36.5,56.5,-12,-32,-24,-20,-11,-47
2,57,55,-29.5,-26.5,56,-22,-38,-28,-12,-20,-52
15,62,47,-38.5,-16,55.5,-30,-43,-31,-5,-24,-58
22,65,43,-43.5,-10.5,54,-34,-44,-32,-1,-21,-61
20,64,44,-42,-12,54,-31,-41,-30,-2,-14,-62
11,59,48,-35,-18.5,54.5,-24,-37,-26,-8,-4,-59
0,54,54,-27,-27,54,-14,-31,-22,-16,5,-54
-13,47,60,-17,-36.5,53.5,-7,-26,-19,-24,8,-49
-20,43,63,-11.5,-41.5,53,-4,-25,-19,-28,6,-46
-19,44,63,-12.5,-41,53.5,-7,-28,-21,-27,-2,-46
-10,49,59,-19.5,-34.5,54,-14,-33,-25,-21,-12,-49
2,56,54,-29,-26,55,-23,-39,-29,-13,-21,-54
13,62,49,-37.5,-18,56.5,-32,-45,-33,-6,-25,-59
22,66,44,-44,-11,55,-35,-46,-33,-2,-22,-63
23,66,43,-44.5,-10,55.5,-31,-43,-31,-3,-13,-62
14,61,47,-37.5,-16.5,54,-25,-38,-27,-10,-3,-60
0,53,53,-26.5,-26.5,53,-16,-32,-24,-19,5,-56
-13,47,60,-17,-36.5,53.5,-8,-27,-20,-25,9,-50
-19,46,65,-13.5,-42,55.5,-5,-25,-19,-29,8,-46
-17,48,65,-15.5,-41,56.5,-7,-28,-22,-28,0,-46
-7,53,60,-23,-33.5,56.5,-15,-34,-26,-22,-10,-48
5,60,55,-32.5,-25,58.5,-24,-39,-30,-13,-19,-53
16,67,51,-41.5,-17.5,59,-31,-44,-32,-6,-23,-58
24,70,46,-47,-11,58,-35,-45,-33,-2,-20,-62
25,69,44,-47,-9.5,57.5,-32,-42,-30,-3,-12,-62
16,63,47,-39.5,-15.5,55,-25,-37,-26,-8,-2,-60
0,56,56,-28,-28,56,-15,-31,-21,-16,7,-55
-13,49,62,-18,-37.5,55.5,-7,-26,-18,-22,11,-49
-21,44,65,-11.5,-43,54.5,-3,-25,-17,-26,8,-46
-20,46,66,-13,-43,56,-5,-27,-19,-25,1,-45
-10,52,62,-21,-36,57,-13,-32,-23,-19,-8,-47
3,59,56,-31,-26.5,58.5,-23,-39,-28,-12,-18,-53
16,65,49,-40.5,-16.5,57,-31,-44,-31,-6,-22,-58
24,69,45,-46.5,-10.5,57,-34,-44,-31,-1,-20,-61
23,69,46,-46,-11.5,58.5,-32,-41,-28,-2,-12,-61
14,64,50,-39,-18,57,-25,-36,-25,-7,-1,-59
0,56,56,-28,-28,56,-17,-31,-21,-15,7,-54
-12,50,62,-19,-37,56,-9,-27,-18,-23,10,-49
-19,47,66,-14,-42.5,56.5,-6,-26,-18,-27,7,-46
-18,49,67,-15.5,-42.5,58,-9,-29,-20,-26,0,-45
-9,54,63,-22.5,-36,58.5,-17,-34,-24,-20,-9,-48
4,61,57,-32.5,-26.5,59,-25,-39,-27,-11,-19,-52
17,67,50,-42,-16.5,59.5,-32,-43,-29,-3,-21,-58
25,70,45,-47.5,-10,58.5,-35,-44,-30,0,-19,-62
24,70,46,-47,-11,58,-33,-42,-28,0,-10,-62
15,64,49,-39.5,-17,57.5,-25,-37,-24,-6,0,-59
1,56,55,-28.5,-27,56.5,-16,-30,-20,-14,9,-54
-10,51,61,-20.5,-35.5,56,-9,-26,-17,-21,12,-49
-18,48,66,-15,-42,57,-5,-25,-16,-26,10,-45
-19,49,68,-15,-43.5,58.5,-7,-27,-18,-25,2,-45
-11,53,64,-21,-37.5,58.5,-15,-32,-22,-19,-7,-48
3,60,57,-31.5,-27,59.5,-24,-38,-27,-11,-17,-53
17,67,50,-42,-16.5,59.5,-32,-43,-30,-4,-21,-58
24,70,46,-47,-11,58,-35,-45,-30,0,-19,-61
23,69,46,-46,-11.5,58.5,-33,-42,-28,-1,-11,-62
15,64,49,-39.5,-17,57.5,-26,-37,-24,-6,-1,-60
2,58,56,-30,-27,57,-17,-30,-19,-14,8,-54
-11,51,62,-20,-36.5,56.5,-8,-25,-16,-21,12,-48
-20,46,66,-13,-43,56,-5,-24,-15,-25,10,-45
-19,48,67,-14.5,-43,57.5,-8,-27,-18,-24,1,-44
-9,52,61,-21.5,-35,56.5,-14,-32,-22,-19,-9,-47
4,60,56,-32,-26,58,-24,-37,-26,-11,-18,-52
18,68,50,-43,-16,59,-31,-41,-28,-3,-21,-56
25,71,46,-48,-10.5,59.5,-34,-42,-28,0,-19,-59
23,70,47,-46.5,-12,59.5,-31,-40,-26,0,-11,-60
14,66,52,-40,-19,59,-24,-36,-22,-5,0,-57
2,59,57,-30.5,-27.5,58,-15,-29,-17,-13,7,-52
-11,51,62,-20,-36.5,56.5,-7,-25,-15,-21,10,-47
-20,47,67,-13.5,-43.5,57,-4,-24,-15,-25,8,-44
-19,49,68,-15,-43.5,58.5,-7,-26,-17,-23,0,-43
-9,54,63,-22.5,-36,58.5,-14,-30,-20,-17,-9,-45
4,62,58,-33,-27,60,-24,-36,-24,-9,-18,-50
16,68,52,-42,-18,60,-31,-40,-26,-1,-21,-55
25,72,47,-48.5,-11,60.5,-33,-41,-26,2,-18,-58
24,70,46,-47,-11,58,-31,-39,-24,0,-10,-59
15,65,50,-40,-17.5,58.5,-24,-34,-20,-4,0,-57
1,59,58,-30,-28.5,59.5,-14,-28,-16,-12,10,-52
-10,53,63,-21.5,-36.5,58,-7,-24,-13,-19,14,-46
-18,50,68,-16,-43,59,-4,-23,-13,-23,12,-42
-18,49,67,-15.5,-42.5,58,-6,-25,-15,-22,4,-43
-10,53,63,-21.5,-36.5,58,-13,-30,-19,-17,-6,-45
4,60,56,-32,-26,58,-23,-36,-23,-9,-15,-50
17,68,51,-42.5,-17,60.5,-30,-40,-26,-2,-18,-55
22,70,48,-46,-13,59,-33,-42,-26,0,-16,-59
21,67,46,-44,-12.5,57.5,-30,-40,-25,-1,-9,-60
13,62,49,-37.5,-18,56.5,-24,-35,-22,-8,0,-58
1,56,55,-28.5,-27,56.5,-14,-28,-18,-17,8,-53
-11,51,62,-20,-36.5,56.5,-7,-24,-15,-25,11,-48
-20,47,67,-13.5,-43.5,57,-3,-23,-15,-28,9,-45
-20,47,67,-13.5,-43.5,57,-6,-26,-18,-26,1,-45
-11,52,63,-20.5,-37,57.5,-13,-31,-22,-20,-6,-47
2,60,58,-31,-28,59,-22,-37,-25,-9,-13,-50
16,68,52,-42,-18,60,-31,-42,-29,-1,-14,-54
24,72,48,-48,-12,60,-35,-44,-31,1,-11,-57
23,69,46,-46,-11.5,58.5,-31,-41,-31,-2,-5,-58
14,62,48,-38,-17,55,-25,-38,-31,-11,3,-56
1,54,53,-27.5,-26,54.5,-16,-33,-29,-22,11,-52
-12,47,59,-17.5,-35.5,53,-5,-26,-24,-30,13,-46
-20,43,63,-11.5,-41.5,53,0,-22,-22,-34,10,-43
-19,41,60,-11,-39.5,50.5,-1,-24,-25,-34,2,-42
-10,45,55,-17.5,-32.5,50,-7,-29,-31,-31,-7,-44
3,51,48,-27,-22.5,50.5,-16,-36,-37,-26,-17,-49
15,55,40,-35,-12.5,48.5,-24,-40,-43,-21,-21,-54
22,58,36,-40,-7,47,-27,-41,-44,-19,-19,-58
23,56,33,-39.5,-5,45.5,-23,-36,-41,-21,-12,-59
15,48,33,-31.5,-9,41.5,-13,-29,-38,-28,-2,-56
2,39,37,-20.5,-17.5,38,-4,-24,-37,-40,6,-51
-9,35,44,-13,-26.5,39.5,0,-23,-40,-53,9,-44
-15,33,48,-9,-31.5,40.5,0,-24,-43,-60,8,-38
-14,32,46,-9,-30,39,-3,-27,-48,-60,3,-36
-4,37,41,-16.5,-22.5,39,-12,-34,-56,-57,-3,-36
11,45,34,-28,-11.5,40.5,-25,-42,-66,-52,-10,-37
25,51,26,-38,-0.5,39.5,-34,-49,-73,-49,-12,-40
33,51,18,-42,8.5,35.5,-37,-51,-77,-53,-14,-44
31,35,4,-33,14.5,20.5,-28,-41,-70,-57,-12,-49
25,10,-15,-17.5,20,-2.5,-9,-21,-52,-58,-8,-53
13,-18,-31,2.5,22,-24.5,9,-2,-35,-66,-12,-58
-2,-49,-47,25.5,22.5,-48,26,14,-21,-75,-24,-65
-10,-77,-67,43.5,28.5,-72,42,29,-7,-78,-41,-73
-10,-95,-85,52.5,37.5,-90,48,35,-3,-83,-63,-83
0,-101,-101,50.5,50.5,-101,44,31,-9,-84,-82,-92
14,-106,-120,46,67,-113,39,30,-8,-74,-95,-102
26,-112,-138,43,82,-125,36,32,-4,-62,-101,-112
33,-118,-151,42.5,92,-134.5,38,36,0,-53,-100,-119
32,-129,-161,48.5,96.5,-145,47,45,7,-53,-95,-125
22,-146,-168,62,95,-157,60,55,11,-67,-95,-130
5,-161,-166,78,85.5,-163.5,74,64,17,-84,-96,-130
-8,-170,-162,89,77,-166,84,71,22,-91,-95,-128
-16,-170,-154,93,69,-162,87,73,23,-93,-97,-126
-13,-164,-151,88.5,69,-158.5,84,72,24,-90,-105,-126
-4,-154,-150,79,73,-152,79,71,28,-79,-113,-129
8,-144,-152,68,80,-148,73,72,38,-61,-120,-135
22,-136,-158,57,90,-147,69,74,49,-45,-120,-139
31,-132,-163,50.5,97,-147.5,68,78,59,-33,-115,-142
30,-134,-164,52,97,-149,73,87,73,-30,-109,-146
20,-137,-157,58.5,88.5,-147,82,97,91,-31,-101,-146
6,-139,-145,66.5,75.5,-142,92,107,112,-30,-90,-140
-5,-143,-138,74,66.5,-141.5,101,118,131,-32,-87,-136
-11,-142,-131,76.5,60,-137.5,106,128,150,-30,-89,-134
-10,-135,-125,72.5,57.5,-130,106,134,168,-22,-94,-133
-2,-126,-124,64,61,-125,104,141,181,-11,-102,-135
9,-116,-125,53.5,67,-120.5,99,143,186,0,-109,-139
21,-104,-125,41.5,73,-114.5,92,137,184,11,-109,-143
25,-94,-119,34.5,72,-106.5,92,135,181,16,-104,-145
18,-91,-109,36.5,63.5,-100,99,135,159,5,-98,-146
5,-95,-100,45,52.5,-97.5,112,138,131,-17,-93,-145
-9,-97,-88,53,39.5,-93.5,126,144,111,-36,-85,-139
-23,-94,-71,58.5,24,-83.5,138,149,95,-47,-79,-131
-32,-91,-59,61.5,13.5,-75,146,149,83,-56,-80,-126
-34,-86,-52,60,9,-69,145,139,68,-62,-89,-125
-28,-73,-45,50.5,8.5,-59,134,125,52,-61,-98,-124
-15,-56,-41,35.5,13,-49.5,118,109,37,-54,-103,-124
-3,-42,-39,22.5,18,-41.5,103,95,23,-47,-102,-124
5,-28,-33,11.5,19,-30.5,92,86,14,-41,-93,-122
7,-17,-24,5,15.5,-20.5,87,81,12,-38,-78,-116
0,-10,-10,5,5,-10,86,79,16,-36,-58,-105
-13,-6,7,9.5,-10,0.5,86,79,22,-36,-39,-92
-25,-3,22,14,-24.5,9.5,83,74,24,-36,-28,-81
-32,3,35,14.5,-33.5,19,78,66,22,-35,-24,-73
-29,12,41,8.5,-35,26.5,66,53,17,-29,-27,-68
-17,23,40,-3,-28.5,31.5,49,39,12,-20,-33,-66
-2,36,38,-17,-20,37,30,25,6,-8,-38,-69
8,46,38,-27,-15,42,15,13,4,3,-38,-71
17,54,37,-35.5,-10,46.5,4,5,4,10,-31,-71
18,58,40,-38,-11,49,0,0,5,12,-20,-69
11,58,47,-34.5,-18,53.5,0,-1,7,8,-7,-64
0,54,54,-27,-27,54,4,-1,10,0,2,-57
-12,48,60,-18,-36,54,8,0,12,-6,6,-51
-21,45,66,-12,-43.5,55.5,9,-2,11,-9,5,-47
-22,47,69,-12.5,-45.5,58,4,-9,8,-8,-2,-46
-13,53,66,-20,-39.5,59.5,-5,-17,2,-3,-13,-49
0,61,61,-30.5,-30.5,61,-16,-25,-2,4,-22,-54
15,69,54,-42,-19.5,62.5,-25,-30,-6,11,-24,-58
23,73,50,-48,-13.5,62.5,-29,-33,-7,16,-22,-61
22,74,52,-48,-15,63,-28,-32,-5,15,-14,-61
13,68,55,-40.5,-21,62.5,-22,-28,-2,10,-4,-59
0,61,61,-30.5,-30.5,61,-14,-23,0,1,4,-54
-13,54,67,-20.5,-40,60.5,-8,-19,2,-5,7,-49
-22,51,73,-14.5,-47.5,62,-5,-19,3,-9,6,-44
-22,53,75,-15.5,-48.5,64,-8,-22,1,-8,0,-43
-12,59,71,-23.5,-41.5,65,-16,-28,-3,-2,-10,-46
1,67,66,-34,-32.5,67.5,-25,-34,-7,6,-19,-51
14,72,58,-43,-22,65,-32,-38,-8,14,-20,-55
21,75,54,-48,-16.5,65.5,-35,-38,-8,18,-17,-58
22,74,52,-48,-15,63,-32,-36,-6,17,-9,-58
15,71,56,-43,-20.5,64.5,-25,-31,-2,13,0,-55
2,65,63,-33.5,-30.5,64,-15,-25,2,6,10,-49
-12,58,70,-23,-41,64,-8,-21,4,-1,12,-45
-21,54,75,-16.5,-48,64.5,-6,-21,3,-6,8,-42
-18,56,74,-19,-46,65,-8,-24,2,-5,1,-42
-10,61,71,-25.5,-40.5,66,-16,-29,-1,0,-9,-45
3,68,65,-35.5,-31,67.5,-26,-36,-7,6,-19,-51
16,74,58,-45,-21,66,-34,-40,-9,13,-22,-56
22,77,55,-49.5,-16.5,66,-36,-41,-9,17,-19,-59
21,77,56,-49,-17.5,67.5,-33,-39,-7,16,-12,-60
13,73,60,-43,-23.5,67.5,-27,-34,-3,10,-2,-58
0,67,67,-33.5,-33.5,67,-18,-28,0,2,7,-52
-13,60,73,-23.5,-43,66.5,-12,-24,2,-4,10,-48
-21,55,76,-17,-48.5,65.5,-9,-24,2,-8,7,-45
-19,57,76,-19,-47.5,66.5,-11,-26,1,-6,-1,-45
-8,63,71,-27.5,-39.5,67,-17,-30,-1,0,-10,-47
5,69,64,-37,-29.5,67.5,-26,-35,-4,9,-18,-51
17,74,57,-45.5,-20,66.5,-34,-40,-6,16,-21,-57
24,77,53,-50.5,-14.5,65,-36,-41,-6,20,-18,-60
22,75,53,-48.5,-15.5,64,-34,-39,-4,18,-10,-60
12,69,57,-40.5,-22.5,63,-28,-35,-1,12,-1,-58
-1,63,64,-31,-32.5,63.5,-18,-29,3,4,7,-53
-12,58,70,-23,-41,64,-11,-23,6,-1,10,-47
-18,56,74,-19,-46,65,-7,-22,6,-5,8,-44
-19,56,75,-18.5,-47,65.5,-10,-26,3,-5,0,-44
-11,61,72,-25,-41.5,66.5,-17,-31,0,0,-10,-47
4,69,65,-36.5,-30.5,67,-27,-37,-4,9,-20,-52
16,75,59,-45.5,-21.5,67,-36,-42,-7,15,-23,-57
22,78,56,-50,-17,67,-38,-42,-7,19,-21,-60
21,77,56,-49,-17.5,67.5,-35,-39,-4,19,-12,-60
13,73,60,-43,-23.5,67.5,-28,-33,0,13,-2,-58
1,67,66,-34,-32.5,67.5,-18,-28,3,4,6,-54
-12,60,72,-24,-42,66,-13,-24,5,-3,8,-50
-21,55,76,-17,-48.5,65.5,-10,-23,5,-6,5,-46
-20,56,76,-18,-48,66,-11,-25,4,-4,0,-45
-11,61,72,-25,-41.5,66.5,-18,-30,1,1,-9,-46
1,68,67,-34.5,-33,68.5,-28,-35,-2,8,-18,-51
14,74,60,-44,-23,67,-35,-39,-4,15,-20,-55
22,77,55,-49.5,-16.5,66,-39,-40,-5,19,-19,-59
22,77,55,-49.5,-16.5,66,-36,-38,-2,18,-11,-59
14,73,59,-43.5,-22.5,66,-28,-32,1,13,-1,-56
1,66,65,-33.5,-32,66.5,-19,-26,5,5,7,-52
-12,59,71,-23.5,-41.5,65,-12,-22,7,-2,9,-47
-20,57,77,-18.5,-48.5,67,-8,-22,7,-6,7,-44
-20,57,77,-18.5,-48.5,67,-12,-26,4,-6,-2,-44
-12,61,73,-24.5,-42.5,67,-20,-31,0,-2,-13,-48
1,69,68,-35,-33.5,69.5,-28,-36,-3,6,-22,-54
16,78,62,-47,-23,70,-34,-39,-4,13,-25,-58
23,80,57,-51.5,-17,69.5,-38,-40,-5,16,-22,-62
20,78,58,-49,-19,68,-36,-38,-3,15,-14,-63
10,71,61,-40.5,-25.5,66,-28,-33,0,10,-4,-60
-2,65,67,-31.5,-34.5,66,-18,-27,5,2,5,-54
-13,60,73,-23.5,-43,66.5,-10,-22,8,-4,9,-48
-21,58,79,-18.5,-50,68.5,-6,-20,9,-7,7,-43
-19,59,78,-20,-48.5,68.5,-9,-23,6,-6,-1,-43
-9,64,73,-27.5,-41,68.5,-17,-30,2,-1,-12,-46
3,70,67,-36.5,-32,69.5,-26,-35,-1,5,-22,-50
15,76,61,-45.5,-23,69.5,-33,-38,-3,12,-26,-55
23,81,58,-52,-17.5,70.5,-35,-38,-3,16,-24,-58
22,82,60,-52,-19,71,-32,-36,-1,14,-16,-59
12,76,64,-44,-26,70,-25,-32,1,7,-7,-57
-3,66,69,-31.5,-36,67.5,-17,-27,5,-2,1,-52
-14,61,75,-23.5,-44.5,68,-9,-22,8,-9,5,-47
-21,58,79,-18.5,-50,68.5,-5,-21,8,-13,3,-44
-21,58,79,-18.5,-50,68.5,-8,-23,6,-11,-4,-44
-13,62,75,-24.5,-44,68.5,-15,-29,3,-5,-13,-46
2,71,69,-36.5,-33.5,70,-23,-34,0,3,-20,-50
17,79,62,-48,-22.5,71.5,-30,-38,-1,11,-22,-54
24,81,57,-52.5,-16.5,69,-33,-39,-2,14,-20,-58
21,80,59,-50.5,-19,70.5,-30,-36,0,12,-12,-57
10,75,65,-42.5,-27.5,70,-22,-31,2,5,-3,-54
-3,68,71,-32.5,-37,69.5,-14,-26,5,-3,3,-50
-13,64,77,-25.5,-45,70.5,-7,-21,8,-10,6,-45
-20,62,82,-21,-51,72,-4,-21,8,-14,4,-42
-20,62,82,-21,-51,72,-7,-24,5,-13,-4,-42
-13,65,78,-26,-45.5,71.5,-14,-28,3,-7,-15,-45
0,71,71,-35.5,-35.5,71,-23,-33,0,0,-24,-50
14,78,64,-46,-25,71,-30,-38,-1,7,-27,-55
22,82,60,-52,-19,71,-31,-38,-1,11,-24,-58
22,83,61,-52.5,-19.5,72,-28,-35,1,10,-15,-58
12,78,66,-45,-27,72,-22,-30,4,4,-4,-55
0,71,71,-35.5,-35.5,71,-13,-24,8,-4,3,-50
-13,64,77,-25.5,-45,70.5,-6,-21,10,-12,5,-46
-21,61,82,-20,-51.5,71.5,-3,-20,10,-16,2,-43
-18,63,81,-22.5,-49.5,72,-4,-21,8,-15,-5,-42
-10,68,78,-29,-44,73,-12,-27,4,-10,-15,-45
2,75,73,-38.5,-35.5,74,-22,-33,0,-2,-24,-50
15,82,67,-48.5,-26,75.5,-28,-37,-1,3,-27,-55
23,86,63,-54.5,-20,75.5,-31,-38,-1,6,-26,-58
22,84,62,-53,-20,73,-28,-35,0,4,-18,-58
11,77,66,-44,-27.5,72.5,-21,-31,3,-1,-9,-56
-3,68,71,-32.5,-37,69.5,-13,-26,6,-9,0,-52
-16,63,79,-23.5,-47.5,71,-4,-19,11,-14,3,-47
-22,61,83,-19.5,-52.5,72,0,-16,12,-16,1,-42
-21,62,83,-20.5,-52,72.5,-3,-19,10,-16,-5,-42
-13,65,78,-26,-45.5,71.5,-12,-26,5,-13,-16,-45
1,72,71,-36.5,-35,72.5,-20,-31,1,-5,-26,-50
14,79,65,-46.5,-25.5,72,-26,-35,-1,0,-29,-55
21,83,62,-52,-20.5,73.5,-30,-36,-2,3,-27,-58
20,82,62,-51,-21,72,-28,-34,0,2,-18,-58
11,78,67,-44.5,-28,73.5,-21,-29,3,-4,-8,-55
-1,72,73,-35.5,-37,72.5,-11,-23,7,-13,0,-50
-14,65,79,-25.5,-46.5,72,-3,-19,9,-20,2,-46
-23,60,83,-18.5,-53,71.5,-1,-18,8,-24,0,-44
-22,61,83,-19.5,-52.5,72,-3,-21,6,-24,-8,-44
-11,67,78,-28,-44.5,72.5,-10,-26,2,-19,-18,-46
2,74,72,-38,-35,73,-19,-32,-2,-12,-28,-50
14,81,67,-47.5,-26.5,74,-27,-37,-5,-7,-32,-56
21,85,64,-53,-21.5,75.5,-30,-38,-7,-4,-30,-60
21,85,64,-53,-21.5,75.5,-28,-35,-4,-6,-22,-59
13,79,66,-46,-26.5,73.5,-20,-30,0,-11,-11,-56
0,68,68,-34,-34,68,-12,-25,3,-20,-3,-51
-15,59,74,-22,-44.5,66.5,-6,-21,4,-28,0,-47
-23,56,79,-16.5,-51,67.5,-3,-20,4,-32,-3,-44
-18,60,78,-21,-48,69,-5,-22,2,-31,-11,-43
-8,65,73,-28.5,-40.5,69,-12,-27,-2,-26,-21,-46
4,70,66,-37,-31,68,-21,-34,-7,-19,-31,-51
15,77,62,-46,-23.5,70.5,-28,-38,-9,-13,-33,-55
24,82,58,-53,-17,70,-31,-39,-10,-10,-29,-59
24,81,57,-52.5,-16.5,69,-28,-37,-9,-12,-22,-60
14,76,62,-45,-24,69,-22,-32,-5,-17,-12,-56
0,69,69,-34.5,-34.5,69,-13,-26,-1,-26,-3,-51
-10,63,73,-26.5,-41.5,68,-5,-23,-1,-34,-1,-48
-18,59,77,-20.5,-47.5,68,-2,-22,-1,-37,-2,-45
-20,59,79,-19.5,-49.5,69,-5,-24,-3,-35,-10,-44
-10,62,72,-26,-41,67,-12,-30,-8,-30,-20,-47
5,69,64,-37,-29.5,67.5,-21,-36,-12,-22,-28,-52
17,75,58,-46,-20.5,67.5,-28,-40,-14,-14,-29,-55
22,76,54,-49,-16,65,-31,-41,-16,-11,-26,-58
20,75,55,-47.5,-17.5,65,-29,-40,-15,-12,-18,-58
12,70,58,-41,-23,64,-22,-35,-12,-18,-8,-56
0,63,63,-31.5,-31.5,63,-14,-29,-9,-26,0,-51
-9,59,68,-25,-38.5,63.5,-9,-25,-6,-32,3,-46
-14,57,71,-21.5,-42.5,64,-5,-24,-6,-35,2,-42
-15,57,72,-21,-43.5,64.5,-7,-26,-8,-32,-4,-41
-7,62,69,-27.5,-38,65.5,-14,-32,-12,-25,-14,-44
7,68,61,-37.5,-27,65.5,-24,-39,-17,-18,-24,-50
18,74,56,-46,-19,65,-31,-43,-21,-11,-28,-56
25,77,52,-51,-13.5,65.5,-33,-44,-21,-7,-24,-59
24,76,52,-50,-14,64,-31,-41,-20,-8,-15,-59
15,70,55,-42.5,-20,63.5,-24,-36,-16,-13,-4,-56
1,63,62,-32,-30.5,63.5,-14,-30,-13,-20,4,-51
-11,56,67,-22.5,-39,61.5,-8,-26,-11,-27,8,-46
-17,52,69,-17.5,-43,60.5,-6,-25,-11,-30,6,-43
-16,52,68,-18,-42,60,-9,-29,-14,-29,-1,-43
-4,59,63,-27.5,-33.5,61,-16,-33,-17,-22,-10,-45
10,67,57,-38.5,-23.5,62,-24,-38,-21,-12,-18,-49
19,72,53,-45.5,-17,63.5,-30,-42,-22,-4,-21,-54
27,76,49,-51.5,-11,63.5,-33,-43,-22,0,-19,-57
26,73,47,-49.5,-10.5,60,-32,-41,-20,-2,-12,-59
16,69,53,-42.5,-18.5,61,-25,-36,-17,-7,-1,-57
5,63,58,-34,-26.5,61.5,-16,-30,-13,-15,7,-52
-9,56,65,-23.5,-37,60.5,-8,-26,-11,-22,10,-48
-18,52,70,-17,-44,61,-5,-25,-11,-25,8,-45
-15,54,69,-19.5,-42,61.5,-8,-28,-14,-24,0,-45
-5,60,65,-27.5,-35,62.5,-15,-32,-17,-18,-9,-47
8,67,59,-37.5,-25.5,63,-24,-37,-20,-8,-17,-51
20,73,53,-46.5,-16.5,63,-31,-41,-22,-1,-20,-56
24,74,50,-49,-13,62,-35,-42,-21,1,-17,-60
24,72,48,-48,-12,60,-32,-39,-18,0,-10,-60
16,67,51,-41.5,-17.5,59,-25,-34,-14,-3,0,-57
3,61,58,-32,-27.5,60.5,-15,-27,-9,-10,8,-52
-9,54,63,-22.5,-36,58.5,-7,-23,-6,-17,12,-47
-16,50,66,-17,-41,58,-4,-23,-6,-20,10,-44
-16,51,67,-17.5,-41.5,59,-7,-26,-9,-19,1,-44
-8,56,64,-24,-36,60,-14,-31,-14,-15,-9,-48
6,65,59,-35.5,-26.5,62,-25,-37,-18,-7,-18,-53
19,72,53,-45.5,-17,63.5,-32,-42,-21,0,-20,-58
27,76,49,-51.5,-11,63.5,-34,-42,-20,5,-17,-59
25,75,50,-50,-12.5,63.5,-31,-38,-16,4,-9,-59
16,69,53,-42.5,-18.5,61,-23,-32,-11,0,0,-57
4,63,59,-33.5,-27.5,61,-14,-26,-6,-7,8,-53
-9,55,64,-23,-36.5,59.5,-7,-23,-4,-14,10,-48
-17,50,67,-16.5,-42,58.5,-4,-21,-3,-17,7,-45
-15,51,66,-18,-40.5,58.5,-7,-24,-5,-16,0,-44
-7,56,63,-24.5,-35,59.5,-14,-29,-9,-9,-10,-47
7,63,56,-35,-24.5,60.5,-23,-34,-13,-1,-19,-53
19,69,50,-44,-15.5,60.5,-30,-38,-15,5,-22,-58
24,71,47,-47.5,-11.5,59,-32,-39,-16,8,-20,-61
24,70,46,-47,-11,58,-29,-36,-13,7,-13,-61
14,65,51,-39.5,-18.5,58,-21,-31,-10,1,-3,-58
1,59,58,-30,-28.5,59.5,-13,-26,-6,-7,5,-53
-9,54,63,-22.5,-36,58.5,-7,-22,-3,-13,9,-48
-17,51,68,-17,-42.5,59.5,-5,-21,-3,-17,7,-46
-17,50,67,-16.5,-42,58.5,-5,-23,-4,-15,0,-45
-8,52,60,-22,-34,56,-11,-27,-7,-8,-8,-47
4,59,55,-31.5,-25.5,57,-22,-33,-11,0,-16,-51
19,67,48,-43,-14.5,58.5,-30,-37,-12,7,-18,-55
28,70,42,-49,-7,56,-31,-37,-12,11,-14,-57
27,69,42,-48,-7.5,56.5,-28,-35,-10,9,-6,-58
18,66,48,-42,-15,57,-20,-29,-6,3,2,-55
3,59,56,-31,-26.5,58.5,-11,-24,-2,-4,10,-50
-10,52,62,-21,-36,57,-4,-21,-1,-12,10,-46
-17,48,65,-15.5,-41,56.5,-2,-20,-1,-17,4,-45
-17,50,67,-16.5,-42,58.5,-4,-22,-3,-15,-3,-45
-8,55,63,-23.5,-35.5,59,-11,-27,-5,-8,-14,-48
7,63,56,-35,-24.5,60.5,-21,-32,-9,0,-23,-53
19,70,51,-44.5,-16,61.5,-27,-35,-10,9,-24,-56
26,72,46,-49,-10,59,-29,-36,-10,13,-20,-59
24,68,44,-46,-10,56,-26,-34,-9,11,-13,-60
16,64,48,-40,-16,56,-19,-29,-5,5,-2,-57
2,59,57,-30.5,-27.5,58,-10,-23,0,-2,6,-52
-9,53,62,-22,-35.5,57.5,-2,-19,1,-9,8,-48
-17,49,66,-16,-41.5,57.5,0,-18,0,-13,4,-46
-18,49,67,-15.5,-42.5,58,-3,-22,-2,-14,-5,-47
-9,55,64,-23,-36.5,59.5,-10,-27,-6,-8,-16,-50
5,64,59,-34.5,-27,62.5,-19,-31,-10,0,-24,-55
16,70,54,-43,-19,62,-27,-36,-11,7,-25,-60
23,73,50,-48,-13.5,62.5,-30,-36,-10,12,-21,-62
22,71,49,-46.5,-13.5,60,-26,-32,-7,11,-12,-62
15,67,52,-41,-18.5,60.5,-18,-26,-1,7,-1,-58
3,59,56,-31,-26.5,58.5,-9,-20,2,0,8,-53
-11,52,63,-20.5,-37,57.5,-2,-16,4,-6,11,-48
-18,48,66,-15,-42,57,0,-16,4,-10,9,-45
-17,49,66,-16,-41.5,57.5,-1,-19,1,-10,1,-44
-8,54,62,-23,-35,58,-8,-24,-2,-6,-10,-48
4,61,57,-32.5,-26.5,59,-18,-30,-7,0,-19,-54
17,67,50,-42,-16.5,59.5,-25,-33,-8,7,-22,-58
26,71,45,-48.5,-9.5,58,-28,-34,-8,11,-19,-62
24,71,47,-47.5,-11.5,59,-25,-31,-5,11,-11,-62
15,66,51,-40.5,-18,59.5,-17,-25,0,6,-1,-59
1,58,57,-29.5,-28,58.5,-8,-19,3,0,6,-55
-12,52,64,-20,-38,58,-1,-16,5,-8,8,-52
-18,50,68,-16,-43,59,0,-16,5,-13,5,-49
-16,51,67,-17.5,-41.5,59,-3,-18,2,-13,-3,-49
-9,55,64,-23,-36.5,59.5,-10,-23,-1,-9,-14,-52
3,62,59,-32.5,-28,61.5,-18,-28,-5,-2,-23,-58
17,70,53,-43.5,-18,62.5,-25,-32,-8,5,-25,-63
24,72,48,-48,-12,60,-27,-33,-7,10,-21,-66
20,68,48,-44,-14,58,-26,-30,-4,9,-13,-66
10,61,51,-35.5,-20.5,56,-20,-25,0,3,-3,-63
-2,54,56,-26,-29,55,-10,-19,3,-4,5,-57
-15,48,63,-16.5,-39,55.5,-3,-16,5,-11,7,-53
-22,46,68,-12,-45,57,0,-15,5,-14,4,-49
-20,48,68,-14,-44,58,-2,-17,3,-13,-3,-49
-11,53,64,-21,-37.5,58.5,-9,-22,0,-7,-13,-52
4,60,56,-32,-26,58,-17,-27,-3,1,-21,-56
17,66,49,-41.5,-16,58.5,-25,-32,-6,8,-24,-61
23,70,47,-46.5,-12,59.5,-27,-32,-5,12,-21,-64
21,68,47,-44.5,-13,58.5,-23,-28,-3,11,-12,-64
13,62,49,-37.5,-18,56.5,-15,-24,0,3,-2,-61
0,55,55,-27.5,-27.5,55,-7,-18,2,-5,5,-57
-13,48,61,-17.5,-37,54.5,0,-14,3,-13,6,-53
-21,45,66,-12,-43.5,55.5,1,-14,2,-18,2,-51
-20,46,66,-13,-43,56,-1,-18,0,-16,-5,-52
-12,51,63,-19.5,-37.5,57,-8,-23,-3,-10,-14,-55
1,57,56,-29,-27.5,57.5,-16,-28,-5,-1,-22,-59
12,63,51,-37.5,-19.5,57,-22,-31,-7,6,-25,-63
20,65,45,-42.5,-12.5,55,-26,-33,-7,9,-22,-66
21,66,45,-43.5,-12,56.5,-22,-30,-5,7,-14,-65
14,62,48,-38,-17,55,-14,-25,-3,0,-5,-62
-1,53,54,-26,-27.5,53.5,-7,-21,-1,-8,2,-57
-14,46,60,-16,-37,53,0,-17,0,-14,5,-52
-23,43,66,-10,-44.5,54.5,2,-15,1,-17,2,-49
-22,44,66,-11,-44,55,-1,-18,-1,-16,-5,-49
-12,47,59,-17.5,-35.5,53,-7,-23,-5,-11,-15,-51
1,56,55,-28.5,-27,56.5,-16,-29,-9,-4,-23,-56
15,66,51,-40.5,-18,59.5,-24,-34,-13,0,-27,-62
21,69,48,-45,-13.5,59.5,-27,-36,-13,3,-25,-66
19,68,49,-43.5,-15,59.5,-24,-32,-10,2,-16,-66
12,64,52,-38,-20,58,-17,-26,-5,-2,-5,-62
0,58,58,-29,-29,58,-7,-20,-1,-9,3,-57
-15,49,64,-17,-39.5,56.5,-2,-17,0,-15,7,-52
-22,43,65,-10.5,-43.5,54,0,-17,0,-18,4,-49
-19,43,62,-12,-40.5,52.5,-2,-19,-1,-16,-3,-49
-11,48,59,-18.5,-35,53.5,-9,-24,-5,-10,-12,-51
2,56,54,-29,-26,55,-18,-30,-10,-3,-20,-55
14,63,49,-38.5,-17.5,56,-25,-34,-14,2,-23,-60
21,67,46,-44,-12.5,57.5,-28,-35,-14,4,-21,-63
21,66,45,-43.5,-12,56.5,-26,-32,-11,3,-13,-63
10,61,51,-35.5,-20.5,56,-20,-28,-8,-1,-2,-60
-3,53,56,-25,-29.5,54.5,-12,-24,-4,-9,3,-56
-14,46,60,-16,-37,53,-5,-20,-2,-17,3,-52
-21,44,65,-11.5,-43,54.5,0,-18,-2,-20,1,-47
-20,45,65,-12.5,-42.5,55,-3,-21,-5,-19,-5,-45
-11,49,60,-19,-35.5,54.5,-12,-28,-10,-14,-17,-49
2,58,56,-30,-27,57,-20,-34,-14,-6,-25,-55
14,64,50,-39,-18,57,-28,-38,-16,0,-27,-60
19,67,48,-43,-14.5,58.5,-32,-40,-16,2,-24,-64
19,66,47,-42.5,-14,57.5,-28,-37,-14,1,-16,-64
9,60,51,-34.5,-21,56.5,-21,-31,-11,-4,-5,-61
-3,54,57,-25.5,-30,55.5,-12,-25,-7,-12,3,-55
-13,49,62,-18,-37.5,55.5,-6,-21,-4,-18,6,-51
-20,45,65,-12.5,-42.5,55,-3,-19,-3,-21,4,-47
-21,44,65,-11.5,-43,54.5,-5,-21,-5,-19,-3,-46
-11,49,60,-19,-35.5,54.5,-13,-27,-8,-13,-12,-48
2,57,55,-29.5,-26.5,56,-22,-33,-13,-5,-20,-53
13,62,49,-37.5,-18,56.5,-29,-37,-17,0,-24,-58
22,67,45,-44.5,-11.5,56,-32,-39,-18,3,-21,-61
24,69,45,-46.5,-10.5,57,-29,-36,-16,1,-12,-59
12,62,50,-37,-19,56,-22,-32,-13,-3,-1,-57
-2,53,55,-25.5,-28.5,54,-14,-26,-9,-12,7,-52
-12,48,60,-18,-36,54,-6,-21,-6,-19,10,-47
-20,44,64,-12,-42,54,-3,-20,-5,-22,6,-45
-19,46,65,-13.5,-42,55.5,-7,-24,-8,-21,-2,-45
-10,52,62,-21,-36,57,-14,-29,-12,-16,-13,-48
4,59,55,-31.5,-25.5,57,-23,-35,-16,-8,-22,-53
16,66,50,-41,-17,58,-30,-39,-18,-1,-25,-59
21,70,49,-45.5,-14,60.5,-33,-40,-19,2,-23,-63
18,68,50,-43,-16,59,-30,-38,-17,1,-15,-62
10,62,52,-36,-21,57,-23,-33,-14,-4,-5,-60
-1,57,58,-28,-29.5,57.5,-15,-27,-9,-11,3,-54
-14,50,64,-18,-39,57,-7,-23,-7,-18,6,-48
-22,45,67,-11.5,-44.5,56,-5,-23,-8,-23,3,-46
-20,48,68,-14,-44,58,-7,-25,-10,-21,-3,-45
-9,54,63,-22.5,-36,58.5,-14,-30,-13,-16,-13,-46
4,62,58,-33,-27,60,-24,-36,-18,-8,-22,-50
17,69,52,-43,-17.5,61.5,-31,-40,-21,-1,-24,-54
24,71,47,-47.5,-11.5,59,-34,-41,-21,1,-21,-57
22,68,46,-45,-12,57,-32,-38,-19,0,-13,-58
13,64,51,-38.5,-19,58.5,-24,-33,-14,-5,-3,-55
0,57,57,-28.5,-28.5,57,-14,-27,-10,-12,5,-50
-11,50,61,-19.5,-36,55.5,-7,-23,-7,-18,8,-45
-19,45,64,-13,-41.5,54.5,-4,-22,-6,-23,6,-43
-20,46,66,-13,-43,56,-7,-25,-9,-22,-1,-43
-11,52,63,-20.5,-37,57.5,-15,-31,-14,-18,-12,-47
5,61,56,-33,-25.5,59.5,-24,-37,-18,-10,-20,-51
17,67,50,-42,-16.5,59.5,-30,-41,-20,-2,-22,-55
22,68,46,-45,-12,57,-32,-41,-20,0,-19,-57
21,67,46,-44,-12.5,57.5,-30,-40,-19,0,-10,-58
12,62,50,-37,-19,56,-24,-35,-16,-5,-1,-56
-1,56,57,-27.5,-29,56.5,-15,-29,-11,-13,7,-51
-14,51,65,-18.5,-39.5,58,-8,-25,-9,-19,9,-47
-20,49,69,-14.5,-44.5,59,-5,-24,-9,-22,6,-43
-18,50,68,-16,-43,59,-8,-27,-12,-22,-1,-43
-10,52,62,-21,-36,57,-15,-32,-16,-17,-11,-46
0,58,58,-29,-29,58,-24,-38,-20,-10,-21,-52
16,67,51,-41.5,-17.5,59,-32,-41,-22,-2,-22,-56
26,74,48,-50,-11,61,-35,-42,-21,1,-18,-58
23,72,49,-47.5,-13,61.5,-32,-40,-19,0,-10,-58
12,66,54,-39,-21,60,-26,-35,-16,-7,-1,-55
-1,59,60,-29,-30.5,59.5,-16,-30,-13,-16,7,-50
-14,51,65,-18.5,-39.5,58,-9,-26,-10,-23,10,-44
-21,47,68,-13,-44.5,57.5,-6,-25,-10,-27,8,-41
-16,50,66,-17,-41,58,-9,-28,-11,-24,1,-41
-6,56,62,-25,-34,59,-15,-32,-13,-16,-8,-45
4,62,58,-33,-27,60,-24,-38,-18,-9,-18,-51
16,68,52,-42,-18,60,-31,-42,-20,-3,-21,-54
23,72,49,-47.5,-13,61.5,-34,-43,-21,0,-17,-57
22,69,47,-45.5,-12.5,58,-32,-41,-19,0,-8,-57
12,62,50,-37,-19,56,-24,-35,-15,-5,0,-54
-1,55,56,-27,-28.5,55.5,-15,-29,-11,-13,9,-50
-13,50,63,-18.5,-38,56.5,-8,-24,-8,-21,12,-45
-21,47,68,-13,-44.5,57.5,-5,-24,-8,-25,9,-42
-18,49,67,-15.5,-42.5,58,-8,-28,-12,-26,0,-42
-9,55,64,-23,-36.5,59.5,-15,-34,-17,-21,-11,-46
2,61,59,-31.5,-28.5,60,-24,-40,-21,-14,-21,-51
15,68,53,-41.5,-19,61.5,-31,-44,-24,-8,-23,-55
21,71,50,-46,-14.5,61.5,-34,-45,-23,-4,-19,-57
19,69,50,-44,-15.5,60.5,-31,-42,-20,-4,-10,-57
11,64,53,-37.5,-21,59.5,-23,-37,-17,-10,0,-54
-1,57,58,-28,-29.5,57.5,-14,-31,-12,-17,9,-49
-15,50,65,-17.5,-40,57.5,-7,-27,-10,-23,12,-45
-21,48,69,-13.5,-45,58.5,-6,-27,-10,-27,8,-43
-17,51,68,-17,-42.5,59.5,-8,-29,-13,-27,0,-42
-7,57,64,-25,-35.5,60.5,-15,-33,-16,-21,-9,-44
6,65,59,-35.5,-26.5,62,-25,-40,-19,-12,-18,-49
